Sym0		Asym0		Sym1		Sym2		Asym1	
475  Points		491  Points		475  Points		236  Points		399  Points	
Freq (MHz)	Vgr (m/ms)	Freq (MHz)	Vgr (m/ms)	Freq (MHz)	Vgr (m/ms)	Freq (MHz)	Vgr (m/ms)	Freq (MHz)	Vgr (m/ms)
0.00250913	9.162	0.000588294	0.665961	0.00275597	9.1619	0.279512	0.127792	0.139792	0.50205
0.0110453	9.16059	0.00120877	0.775734	0.0112921	9.16048	0.279631	0.219308	0.14026	0.785454
0.0195789	9.15665	0.00203379	0.986621	0.0198255	9.15652	0.27992	0.401206	0.141256	1.34526
0.0281077	9.15047	0.00304723	1.17929	0.0283542	9.15028	0.280378	0.580137	0.142766	1.88773
0.0366298	9.14199	0.00423127	1.35224	0.0368761	9.1417	0.281001	0.754749	0.144773	2.40709
0.0451428	9.13111	0.00556697	1.50498	0.0453888	9.13075	0.281785	0.923649	0.147252	2.89897
0.0536446	9.11762	0.00703564	1.63799	0.0538902	9.1172	0.282723	1.0856	0.150175	3.36046
0.0621325	9.10142	0.00861918	1.75224	0.0623777	9.10087	0.283808	1.23957	0.153514	3.79
0.0706041	9.08226	0.0103008	1.84936	0.0708487	9.08168	0.285032	1.3844	0.157237	4.18706
0.0790563	9.05991	0.0120653	1.93109	0.0793004	9.05921	0.286387	1.51923	0.161316	4.55214
0.0874862	9.03403	0.0138991	1.99918	0.0877295	9.03322	0.287863	1.64335	0.16572	4.88634
0.0958902	9.00425	0.0157905	2.05546	0.0961328	9.00338	0.28945	1.75632	0.170421	5.19118
0.104265	8.97018	0.0177292	2.10167	0.104506	8.9691	0.291136	1.85804	0.175393	5.46856
0.112605	8.93126	0.0197067	2.13929	0.112846	8.93005	0.292912	1.94862	0.180611	5.72038
0.120907	8.8869	0.0217156	2.16979	0.121146	8.88551	0.294767	2.0287	0.186052	5.94856
0.129165	8.83632	0.0234869	2.19154	0.129403	8.83473	0.296692	2.09943	0.191695	6.15517
0.137373	8.77875	0.0250095	2.20688	0.137609	8.77698	0.298679	2.16239	0.197522	6.34193
0.145523	8.71313	0.0262759	2.21779	0.145758	8.71113	0.300721	2.21966	0.203513	6.51058
0.153609	8.63835	0.0272814	2.22528	0.153841	8.63603	0.302815	2.27379	0.209653	6.66273
0.16162	8.55303	0.0280227	2.23014	0.16185	8.55038	0.304958	2.32776	0.215928	6.79973
0.169546	8.45554	0.0284979	2.23311	0.169774	8.45253	0.307153	2.38511	0.222324	6.92301
0.177376	8.34415	0.0291822	2.23711	0.177601	8.3407	0.309403	2.44941	0.228828	7.03364
0.185095	8.2168	0.0299272	2.24095	0.185316	8.21284	0.311717	2.52455	0.23543	7.13271
0.192687	8.07122	0.0309425	2.2456	0.192904	8.06669	0.314107	2.61454	0.242119	7.22115
0.200134	7.90495	0.0322293	2.25075	0.200347	7.89985	0.316589	2.72342	0.248886	7.29974
0.207417	7.71553	0.033789	2.25588	0.207625	7.70972	0.319182	2.85495	0.255722	7.36924
0.214511	7.50053	0.0356228	2.26065	0.214714	7.49389	0.321909	3.01263	0.262618	7.43031
0.221393	7.25787	0.0377312	2.26476	0.221589	7.2504	0.324795	3.19944	0.269567	7.48346
0.228036	6.98613	0.0398429	2.26762	0.228224	6.97786	0.32787	3.41743	0.276563	7.5292
0.234411	6.68509	0.0419567	2.26949	0.234591	6.67596	0.331163	3.66738	0.283597	7.56793
0.240493	6.35598	0.0440718	2.2706	0.240664	6.34607	0.334704	3.94834	0.290665	7.59998
0.246255	6.00201	0.0461877	2.27109	0.246416	5.9915	0.338521	4.25745	0.297759	7.6257
0.251677	5.62848	0.0483038	2.27111	0.251828	5.61745	0.342638	4.58957	0.304874	7.64521
0.256743	5.24244	0.0504197	2.27076	0.256884	5.23115	0.347073	4.93763	0.312005	7.65882
0.261445	4.8524	0.0525351	2.27014	0.261576	4.84117	0.351838	5.29309	0.319146	7.66663
0.265785	4.4673	0.0546498	2.26928	0.265905	4.45635	0.356936	5.64675	0.326291	7.66871
0.26977	4.09555	0.0567636	2.26827	0.26988	4.08507	0.36236	5.98982	0.333435	7.66516
0.273416	3.74418	0.0588765	2.26721	0.273517	3.73437	0.368097	6.31496	0.340574	7.65594
0.276747	3.41835	0.0609883	2.26606	0.276838	3.40869	0.374128	6.61654	0.347701	7.64109
0.279786	3.1211	0.0630991	2.26486	0.279495	3.1476	0.380427	6.8909	0.354812	7.62055
0.282562	2.85363	0.0652087	2.26364	0.2816	2.94293	0.386968	7.13655	0.361901	7.59419
0.285104	2.61553	0.0673171	2.26241	0.283238	2.78619	0.393725	7.35349	0.368963	7.56198
0.287436	2.40544	0.0694244	2.26121	0.284472	2.66998	0.40067	7.54274	0.375992	7.52371
0.289586	2.22116	0.0715306	2.26002	0.285347	2.58904	0.40778	7.7062	0.382983	7.47925
0.291575	2.06025	0.0736357	2.25888	0.285893	2.53925	0.41503	7.84607	0.389929	7.42841
0.293425	1.92022	0.0757398	2.25776	0.286659	2.47035	0.4224	7.96466	0.396825	7.37096
0.295153	1.79851	0.0778428	2.25668	0.287469	2.39903	0.429871	8.0643	0.403664	7.30676
0.296776	1.69292	0.0799449	2.25567	0.288533	2.30734	0.437427	8.14698	0.41044	7.23556
0.298308	1.60135	0.082046	2.25465	0.289822	2.19951	0.445052	8.2147	0.417147	7.15716
0.29976	1.52191	0.0841462	2.2537	0.291301	2.08058	0.452734	8.26906	0.423777	7.07142
0.301144	1.45306	0.0862455	2.25279	0.292936	1.95581	0.460461	8.31149	0.430324	6.97815
0.302468	1.39336	0.088344	2.25193	0.294696	1.82983	0.468222	8.34333	0.43678	6.87724
0.30374	1.34163	0.0904417	2.25113	0.296346	1.72007	0.476008	8.36556	0.443139	6.76865
0.304968	1.29685	0.0925387	2.25033	0.297901	1.62488	0.48381	8.37905	0.449392	6.65232
0.306157	1.25803	0.094635	2.24956	0.299374	1.54234	0.491621	8.38455	0.455534	6.52843
0.307312	1.22448	0.0967305	2.24885	0.300775	1.47079	0.499434	8.38266	0.461557	6.39718
0.308438	1.19556	0.0988255	2.2482	0.302114	1.40872	0.507241	8.37391	0.467455	6.25876
0.30954	1.17066	0.10092	2.24755	0.3034	1.35494	0.515038	8.35875	0.47322	6.11367
0.31062	1.14929	0.103014	2.24693	0.304639	1.30835	0.522817	8.33751	0.478847	5.96245
0.311681	1.13101	0.105107	2.24636	0.305838	1.26799	0.530574	8.31048	0.48433	5.80566
0.312727	1.11553	0.107199	2.24582	0.307002	1.23312	0.538303	8.27796	0.489665	5.64415
0.31376	1.10246	0.109292	2.2453	0.308136	1.20298	0.545999	8.24009	0.494848	5.47875
0.314782	1.09155	0.111383	2.24478	0.309243	1.17704	0.553657	8.19709	0.499874	5.3104
0.315794	1.08262	0.113474	2.2443	0.310329	1.15476	0.561273	8.14918	0.504743	5.14009
0.316799	1.07531	0.115565	2.24387	0.311395	1.13568	0.568842	8.09643	0.509452	4.96882
0.317798	1.06955	0.117656	2.24344	0.312445	1.11947	0.57636	8.03905	0.514002	4.79759
0.318792	1.0652	0.119746	2.24301	0.313481	1.10576	0.583822	7.97709	0.518392	4.62746
0.319783	1.06207	0.121835	2.24264	0.314506	1.09433	0.591224	7.91073	0.522625	4.45934
0.320771	1.05998	0.123925	2.24228	0.31552	1.08485	0.598563	7.84013	0.526702	4.29403
0.321758	1.05887	0.126013	2.24191	0.316527	1.07714	0.605834	7.76536	0.530626	4.13238
0.322744	1.05872	0.128102	2.24158	0.317527	1.07101	0.613033	7.68657	0.534402	3.97505
0.323731	1.0593	0.13019	2.24127	0.318523	1.06623	0.620157	7.60391	0.538033	3.82248
0.324718	1.06059	0.132278	2.24093	0.319514	1.06277	0.627202	7.51755	0.541525	3.67509
0.325707	1.06259	0.134366	2.24065	0.320503	1.06046	0.634165	7.42753	0.544457	3.55115
0.326698	1.06514	0.136454	2.24037	0.32149	1.05912	0.641042	7.33405	0.546879	3.44889
0.327692	1.06817	0.138541	2.24008	0.322477	1.05867	0.647831	7.23733	0.548829	3.3668
0.328688	1.07174	0.140628	2.23986	0.323463	1.05903	0.654528	7.13742	0.550338	3.30363
0.329689	1.07574	0.142715	2.23961	0.32445	1.06016	0.661131	7.03449	0.55143	3.25801
0.330693	1.08008	0.144801	2.23937	0.325439	1.06201	0.667636	6.92876	0.552121	3.22918
0.331701	1.08479	0.146887	2.23914	0.326429	1.0644	0.674042	6.82044	0.553103	3.1885
0.332714	1.08983	0.148973	2.23891	0.327422	1.06728	0.680345	6.70961	0.554157	3.14504
0.333732	1.09515	0.151059	2.23869	0.328418	1.07073	0.686544	6.59651	0.555567	3.08708
0.334755	1.10073	0.153145	2.23851	0.329417	1.07462	0.692637	6.48142	0.557313	3.01594
0.335783	1.10654	0.155231	2.23834	0.33042	1.07887	0.698622	6.36448	0.559371	2.93291
0.336817	1.11259	0.157316	2.23811	0.331427	1.08349	0.704497	6.24594	0.561713	2.83959
0.337856	1.11877	0.159401	2.23793	0.332439	1.08843	0.71026	6.12604	0.56431	2.73768
0.338902	1.12513	0.161486	2.2378	0.333456	1.09369	0.715912	6.00506	0.566815	2.6412
0.339953	1.13168	0.163571	2.23762	0.334477	1.09921	0.72145	5.8832	0.569232	2.55012
0.34101	1.13835	0.165656	2.23746	0.335504	1.10497	0.726875	5.76078	0.571566	2.46415
0.342074	1.14509	0.16774	2.23731	0.336536	1.11089	0.732185	5.63811	0.573823	2.38311
0.343144	1.15197	0.169825	2.23716	0.337574	1.11704	0.737381	5.51537	0.576007	2.30671
0.344221	1.15901	0.171909	2.23701	0.338618	1.12341	0.742462	5.39287	0.578122	2.23478
0.345304	1.16605	0.173993	2.23686	0.339667	1.12989	0.74743	5.27084	0.580171	2.16706
0.346393	1.17317	0.176077	2.23675	0.340723	1.13653	0.752284	5.1496	0.58216	2.10332
0.34749	1.18037	0.178161	2.23662	0.341785	1.14326	0.757025	5.02937	0.584091	2.0434
0.348593	1.18761	0.180245	2.23648	0.342853	1.15011	0.761655	4.91035	0.585967	1.98703
0.349703	1.1949	0.182328	2.23634	0.343928	1.15708	0.766175	4.79286	0.587793	1.93398
0.350819	1.20223	0.184412	2.23623	0.345009	1.16412	0.770586	4.67696	0.589571	1.88413
0.351798	1.2086	0.186495	2.23614	0.346097	1.17123	0.77489	4.56288	0.591304	1.83727
0.352637	1.21411	0.188579	2.23603	0.347192	1.17841	0.779089	4.45087	0.592995	1.79315
0.353333	1.21864	0.190662	2.23593	0.348293	1.18566	0.783184	4.34096	0.594646	1.75172
0.353885	1.22222	0.192745	2.23585	0.349401	1.19291	0.78667	4.24697	0.596259	1.7128
0.354292	1.22495	0.194828	2.23573	0.350516	1.20024	0.789582	4.16819	0.597837	1.67616
0.354553	1.22661	0.196911	2.23564	0.351638	1.2076	0.791949	4.10417	0.599382	1.64173
0.354929	1.22902	0.198994	2.23551	0.352766	1.21494	0.793795	4.05414	0.600896	1.60939
0.355338	1.2317	0.201077	2.23542	0.353902	1.22235	0.795138	4.01772	0.602381	1.57898
0.355897	1.23521	0.20316	2.23537	0.355044	1.22975	0.795991	3.99466	0.603839	1.55037
0.356605	1.23982	0.205242	2.23527	0.356193	1.23715	0.797209	3.9617	0.60527	1.5235
0.357465	1.24531	0.207325	2.23519	0.357349	1.24458	0.798521	3.9262	0.606677	1.49828
0.358479	1.25175	0.209407	2.23511	0.358512	1.252	0.800287	3.87849	0.608062	1.47453
0.359648	1.25916	0.21149	2.23503	0.359682	1.25941	0.802489	3.81901	0.609425	1.45222
0.360825	1.26656	0.213572	2.23496	0.360859	1.26677	0.805108	3.74846	0.610768	1.43129
0.362008	1.27396	0.215654	2.23488	0.362043	1.27415	0.808118	3.66756	0.612092	1.41163
0.363199	1.28132	0.217736	2.23481	0.363233	1.28154	0.811492	3.57711	0.613398	1.39316
0.364396	1.28867	0.219819	2.23474	0.364431	1.28886	0.814784	3.4893	0.614688	1.37583
0.3656	1.29596	0.221901	2.2347	0.365635	1.29618	0.817994	3.40412	0.615962	1.35955
0.366811	1.30327	0.223983	2.23461	0.366846	1.30347	0.821127	3.32158	0.617222	1.3443
0.368029	1.31056	0.226065	2.23452	0.368064	1.31074	0.824184	3.24167	0.618467	1.33001
0.369253	1.31775	0.228146	2.23448	0.369288	1.318	0.827167	3.16429	0.6197	1.31657
0.370484	1.32497	0.230228	2.23443	0.37052	1.32518	0.83008	3.08949	0.62092	1.30403
0.371722	1.33213	0.23231	2.23436	0.371758	1.33233	0.832924	3.01719	0.62213	1.29226
0.372966	1.33927	0.234392	2.23429	0.373002	1.33945	0.835702	2.94728	0.623328	1.28125
0.374217	1.34639	0.236473	2.23426	0.374254	1.3466	0.838416	2.8798	0.624517	1.27099
0.375475	1.35342	0.238555	2.2342	0.375512	1.35365	0.841068	2.81464	0.625697	1.26139
0.376739	1.36046	0.240637	2.23414	0.376776	1.36062	0.843661	2.75174	0.626868	1.25245
0.37801	1.36742	0.242718	2.23407	0.378047	1.36762	0.846196	2.69106	0.628031	1.2441
0.379287	1.37434	0.2448	2.234	0.379325	1.37457	0.848676	2.63253	0.629186	1.23633
0.380571	1.38124	0.246881	2.234	0.380608	1.38141	0.851101	2.57613	0.630334	1.22912
0.381861	1.38807	0.248962	2.23397	0.381899	1.38827	0.853476	2.5217	0.631476	1.2224
0.383158	1.39488	0.251044	2.23387	0.383195	1.39507	0.8558	2.46926	0.632612	1.21618
0.38446	1.40162	0.253125	2.23383	0.384498	1.4018	0.858077	2.41876	0.633742	1.21044
0.385769	1.40833	0.255206	2.23381	0.385807	1.40854	0.860307	2.37007	0.634868	1.20515
0.387085	1.41501	0.257287	2.23376	0.387123	1.4152	0.862493	2.32317	0.635988	1.20027
0.388406	1.42157	0.259369	2.2337	0.388444	1.42179	0.864636	2.27804	0.637104	1.19578
0.389734	1.42815	0.26145	2.23367	0.389772	1.42831	0.866738	2.23452	0.638216	1.1917
0.391067	1.43466	0.263531	2.23362	0.391106	1.43483	0.8688	2.19262	0.639325	1.18798
0.392407	1.44111	0.265612	2.23355	0.392446	1.44131	0.870824	2.1523	0.64043	1.18454
0.393753	1.44755	0.267693	2.23352	0.393792	1.44774	0.872811	2.11347	0.641532	1.18147
0.395104	1.45388	0.269774	2.23351	0.395144	1.4541	0.874762	2.0761	0.642632	1.17876
0.396462	1.4602	0.271855	2.2335	0.396501	1.46036	0.876679	2.0401	0.643729	1.17627
0.397825	1.46647	0.273936	2.23342	0.397865	1.46664	0.878564	2.00547	0.644823	1.17408
0.399194	1.47265	0.276016	2.23338	0.399234	1.47285	0.880416	1.97219	0.645916	1.17217
0.400569	1.47881	0.278097	2.23336	0.400609	1.479	0.882239	1.9401	0.647008	1.17049
0.40195	1.48493	0.280178	2.23332	0.40199	1.48511	0.884032	1.90922	0.648097	1.1691
0.403336	1.491	0.282259	2.23329	0.403377	1.49114	0.885796	1.87953	0.649186	1.16792
0.404728	1.49699	0.284339	2.23325	0.404769	1.49715	0.887534	1.85092	0.650274	1.16694
0.406126	1.50292	0.28642	2.23322	0.406166	1.50312	0.889245	1.82339	0.651361	1.16618
0.407529	1.50882	0.288501	2.23317	0.40757	1.509	0.890932	1.79696	0.652447	1.16563
0.408937	1.51469	0.290581	2.23315	0.408978	1.51484	0.892594	1.77151	0.653533	1.16527
0.410351	1.52049	0.292662	2.23314	0.410392	1.52065	0.894233	1.747	0.654618	1.1651
0.411771	1.52624	0.294743	2.23309	0.411812	1.52641	0.895849	1.72342	0.655704	1.16505
0.413195	1.53194	0.296823	2.23307	0.413237	1.53211	0.897444	1.70076	0.656789	1.1652
0.414625	1.53757	0.298904	2.23302	0.414667	1.53774	0.899018	1.67895	0.657875	1.16554
0.41606	1.54317	0.300984	2.233	0.416102	1.54334	0.900573	1.65798	0.658961	1.166
0.417501	1.54872	0.303065	2.23299	0.417543	1.54889	0.902108	1.63779	0.660048	1.16663
0.418946	1.55424	0.305145	2.23295	0.418988	1.55437	0.903624	1.61839	0.661135	1.16735
0.420397	1.55967	0.307225	2.23289	0.420439	1.55979	0.905123	1.59972	0.662223	1.16822
0.421853	1.56506	0.309306	2.23286	0.421895	1.5652	0.906605	1.58174	0.663312	1.16925
0.423313	1.57039	0.311386	2.23288	0.423356	1.57059	0.908071	1.56448	0.664402	1.17034
0.424779	1.57569	0.313467	2.23286	0.424821	1.57584	0.90952	1.54786	0.665492	1.17159
0.426249	1.58098	0.315547	2.23281	0.426292	1.5811	0.910955	1.53194	0.666585	1.1729
0.427725	1.58615	0.317627	2.23278	0.427768	1.58634	0.912375	1.51658	0.667678	1.17433
0.429205	1.5913	0.319707	2.23277	0.429248	1.59144	0.913781	1.50179	0.668773	1.17593
0.43069	1.59644	0.321788	2.23276	0.430733	1.59656	0.915173	1.48762	0.669869	1.17753
0.43218	1.60146	0.323868	2.23272	0.432223	1.60164	0.916553	1.47398	0.670967	1.17924
0.433674	1.60646	0.325948	2.23267	0.433718	1.6066	0.91792	1.46087	0.672067	1.18109
0.435173	1.61145	0.328028	2.23268	0.435217	1.61157	0.919275	1.4483	0.673168	1.18297
0.436677	1.61637	0.330108	2.23264	0.43672	1.61651	0.920619	1.4362	0.674271	1.18493
0.438185	1.62124	0.332189	2.23263	0.438229	1.62136	0.921951	1.42454	0.675376	1.18697
0.439698	1.62606	0.334269	2.23262	0.439742	1.6262	0.923273	1.4134	0.676483	1.18913
0.441215	1.63084	0.336349	2.23258	0.441259	1.63097	0.924585	1.40267	0.677592	1.19131
0.442737	1.63558	0.338429	2.23256	0.442781	1.6357	0.925887	1.39236	0.678703	1.19353
0.444263	1.64026	0.340509	2.23251	0.444307	1.6404	0.92718	1.38248	0.679816	1.19585
0.445793	1.6449	0.342589	2.23252	0.445838	1.64506	0.928463	1.373	0.680931	1.19822
0.447328	1.6495	0.344669	2.23249	0.447372	1.64963	0.929738	1.3639	0.682048	1.20065
0.448867	1.65406	0.346749	2.23248	0.448911	1.65418	0.931005	1.35514	0.683168	1.20311
0.45041	1.65858	0.348829	2.23247	0.450455	1.65873	0.932263	1.34673	0.68429	1.20566
0.451958	1.66304	0.350909	2.23243	0.452002	1.66316	0.933514	1.33868	0.685415	1.20825
0.453509	1.66746	0.352989	2.23241	0.453554	1.66757	0.934758	1.331	0.686542	1.21087
0.455065	1.67184	0.355069	2.2324	0.45511	1.67198	0.935994	1.32364	0.687671	1.21353
0.456624	1.67618	0.357149	2.2324	0.456669	1.67634	0.937224	1.31655	0.688803	1.21625
0.458188	1.68048	0.359229	2.23236	0.458233	1.68061	0.938448	1.30975	0.689938	1.219
0.459756	1.68475	0.361308	2.23234	0.459801	1.68487	0.939665	1.30327	0.691075	1.22177
0.461327	1.68898	0.363388	2.23233	0.461373	1.68909	0.940876	1.29707	0.692214	1.22458
0.462903	1.69314	0.365468	2.23232	0.462949	1.69328	0.942082	1.29115	0.693356	1.22746
0.464482	1.69731	0.367548	2.23228	0.464528	1.69743	0.943282	1.28544	0.694501	1.23036
0.466066	1.70137	0.369628	2.23226	0.466112	1.70148	0.944477	1.27998	0.695649	1.23323
0.467653	1.70542	0.371708	2.23225	0.467699	1.70556	0.945667	1.27484	0.696799	1.23621
0.469244	1.70949	0.373787	2.23225	0.46929	1.70957	0.946852	1.26985	0.697953	1.2392
0.470838	1.71343	0.375867	2.23225	0.470884	1.71356	0.948033	1.26512	0.699109	1.24216
0.472436	1.71738	0.377947	2.23221	0.472483	1.71749	0.94921	1.26064	0.700267	1.24522
0.474038	1.72129	0.380027	2.23219	0.474085	1.72136	0.950382	1.25634	0.701429	1.24828
0.475644	1.72512	0.382106	2.23218	0.47569	1.72528	0.951551	1.25225	0.702593	1.25132
0.477253	1.72897	0.384186	2.23214	0.477299	1.7291	0.952716	1.24834	0.703761	1.25441
0.478866	1.7328	0.386266	2.23212	0.478912	1.73288	0.953877	1.24466	0.704931	1.25753
0.480482	1.73655	0.388345	2.23215	0.480529	1.73664	0.955035	1.24114	0.706104	1.26066
0.482101	1.74022	0.390425	2.23212	0.482148	1.74035	0.95619	1.2378	0.70728	1.26381
0.483724	1.74392	0.392505	2.23211	0.483771	1.74403	0.957342	1.23463	0.708459	1.26695
0.485351	1.7476	0.394584	2.2321	0.485398	1.74767	0.95849	1.23166	0.709641	1.2701
0.486981	1.7512	0.396664	2.23206	0.487028	1.75129	0.959637	1.22885	0.710825	1.27328
0.488614	1.75476	0.398743	2.23205	0.488661	1.75489	0.96078	1.22613	0.712013	1.27652
0.490251	1.75829	0.400823	2.23204	0.490298	1.75841	0.961921	1.2236	0.713204	1.27972
0.491891	1.76182	0.402903	2.23203	0.491938	1.76189	0.96306	1.22127	0.714398	1.28293
0.493534	1.7653	0.404982	2.23203	0.493581	1.76543	0.964197	1.21904	0.715595	1.28618
0.49518	1.76873	0.407062	2.23199	0.495228	1.76884	0.965332	1.21694	0.716795	1.28942
0.49683	1.77217	0.409141	2.23197	0.496877	1.77223	0.966465	1.21497	0.717997	1.29268
0.498482	1.77553	0.411221	2.232	0.49853	1.77565	0.967596	1.21315	0.719203	1.29593
0.500138	1.77886	0.4133	2.23198	0.500186	1.77897	0.968725	1.21143	0.720412	1.29916
0.501797	1.78217	0.41538	2.23193	0.501845	1.78228	0.969853	1.20984	0.721624	1.30246
0.503459	1.78544	0.417459	2.23194	0.503507	1.78554	0.97098	1.20842	0.722839	1.30576
0.505124	1.78872	0.419539	2.23195	0.505172	1.78879	0.972105	1.20705	0.724057	1.30902
0.506792	1.79194	0.421618	2.23191	0.50684	1.79202	0.973229	1.20582	0.725278	1.31227
0.508463	1.79512	0.423698	2.2319	0.508511	1.79521	0.974352	1.20469	0.726503	1.31557
0.510137	1.79829	0.425777	2.23189	0.510185	1.79838	0.975474	1.20365	0.72773	1.31891
0.511814	1.80141	0.427857	2.23188	0.511862	1.80151	0.976595	1.20272	0.72896	1.32215
0.513494	1.80447	0.429936	2.23184	0.513542	1.80457	0.977715	1.2019	0.730194	1.32546
0.515176	1.80754	0.432015	2.23182	0.515225	1.80764	0.978834	1.20119	0.73143	1.32876
0.516862	1.81061	0.434095	2.23185	0.516911	1.81071	0.979953	1.20054	0.73267	1.33202
0.51855	1.81361	0.436174	2.23183	0.518599	1.81371	0.981071	1.19996	0.733912	1.33537
0.520241	1.81662	0.438254	2.23182	0.52029	1.81668	0.982189	1.19949	0.735158	1.33866
0.521935	1.81955	0.440333	2.23181	0.521984	1.81963	0.983307	1.19911	0.736407	1.34192
0.523632	1.82247	0.442412	2.23181	0.523681	1.82253	0.984424	1.19884	0.737658	1.34523
0.525331	1.8254	0.444492	2.23181	0.52538	1.82544	0.98554	1.1986	0.738913	1.34853
0.527033	1.82822	0.446571	2.23177	0.527083	1.82833	0.986657	1.19844	0.740171	1.35183
0.528738	1.83106	0.44865	2.23175	0.528787	1.83117	0.987774	1.1984	0.741432	1.35509
0.530445	1.83391	0.45073	2.23174	0.530495	1.83397	0.98889	1.19838	0.742696	1.35837
0.532155	1.83669	0.452809	2.23174	0.532205	1.83677	0.990007	1.19844	0.743963	1.36169
0.533868	1.83943	0.454888	2.23173	0.533917	1.83956	0.991123	1.19855	0.745234	1.36493
0.535583	1.8422	0.456968	2.2317	0.535633	1.84227	0.99224	1.19875	0.746507	1.3682
0.537301	1.8449	0.459047	2.23168	0.53735	1.84495	0.993357	1.19907	0.747783	1.37152
0.539021	1.84756	0.461126	2.23171	0.53907	1.84764	0.994474	1.19937	0.749062	1.37475
0.540743	1.85025	0.463205	2.23168	0.540793	1.85034	0.995592	1.19974	0.750345	1.37801
0.542468	1.85292	0.465285	2.23167	0.542518	1.85297	0.99671	1.20019	0.75163	1.38129
0.544196	1.85549	0.467364	2.23166	0.544246	1.85557	0.997828	1.2007	0.752919	1.38451
