Sym0		Asym0		Sym1		Sym2		Sym3		Sym4		Asym1		Asym2		Asym3		Asym4	
469  Points		498  Points		236  Points		201  Points		188  Points		131  Points		340  Points		214  Points		175  Points		111  Points	
Freq (MHz)	Vgr (m/ms)	Freq (MHz)	Vgr (m/ms)	Freq (MHz)	Vgr (m/ms)	Freq (MHz)	Vgr (m/ms)	Freq (MHz)	Vgr (m/ms)	Freq (MHz)	Vgr (m/ms)	Freq (MHz)	Vgr (m/ms)	Freq (MHz)	Vgr (m/ms)	Freq (MHz)	Vgr (m/ms)	Freq (MHz)	Vgr (m/ms)
0.00469135	5.11012	5.24313e-005	0.193237	0.279519	0.0717645	0.466705	0.0278381	0.559022	0.0422183	0.838528	0.0240157	0.139791	0.22327	0.419263	0.0318204	0.698773	0.0231694	0.933399	0.00609377
0.00945242	5.10989	0.000232469	0.261299	0.279586	0.104457	0.466731	0.038782	0.559061	0.0630805	0.83855	0.0365148	0.139999	0.320948	0.419293	0.0567464	0.698794	0.037486	0.933405	0.0109925
0.0142131	5.10933	0.000539334	0.3962	0.279714	0.169721	0.466778	0.0607008	0.55914	0.104866	0.838596	0.0614147	0.140389	0.515104	0.419369	0.106476	0.698842	0.0660801	0.933419	0.0207816
0.0189731	5.1086	0.000970744	0.528159	0.279902	0.23477	0.466845	0.0826388	0.559257	0.146617	0.838665	0.0862387	0.140959	0.706247	0.419491	0.15613	0.698917	0.0946306	0.933443	0.0305453
0.0237324	5.10763	0.0015235	0.656213	0.280151	0.299684	0.466932	0.104689	0.559413	0.188296	0.838757	0.111131	0.141705	0.893491	0.41966	0.20578	0.699019	0.123167	0.933476	0.0403315
0.0284906	5.10644	0.00219353	0.779607	0.280461	0.364326	0.46704	0.126889	0.559608	0.229979	0.838872	0.136013	0.142624	1.07601	0.419875	0.255348	0.699147	0.151749	0.933518	0.0501627
0.0332476	5.10507	0.00297621	0.897853	0.28083	0.428571	0.467168	0.149171	0.559841	0.271525	0.83901	0.160802	0.14371	1.25296	0.420136	0.304753	0.699301	0.180275	0.93357	0.0600105
0.0380034	5.10344	0.00386658	1.01035	0.281259	0.49246	0.467318	0.171616	0.560114	0.312943	0.839172	0.185623	0.144959	1.42384	0.420443	0.354052	0.699483	0.208763	0.93363	0.0698918
0.0427573	5.10157	0.00485888	1.11668	0.281748	0.555933	0.467488	0.194239	0.560424	0.354249	0.839356	0.210436	0.146364	1.58812	0.420795	0.403283	0.69969	0.237247	0.9337	0.07984
0.0475096	5.09951	0.00594739	1.21678	0.282295	0.618865	0.46768	0.217074	0.560774	0.395479	0.839564	0.235234	0.147918	1.74552	0.421194	0.452308	0.699925	0.265652	0.933779	0.0898486
0.0522597	5.09723	0.00712622	1.31049	0.282901	0.681227	0.467892	0.240111	0.561161	0.436557	0.839794	0.260001	0.149616	1.89589	0.421638	0.50114	0.700185	0.294043	0.933867	0.0999048
0.0570077	5.09464	0.00838934	1.39777	0.283565	0.743038	0.468127	0.263408	0.561587	0.477406	0.840048	0.284705	0.151451	2.03908	0.422128	0.549804	0.700473	0.322406	0.933965	0.110056
0.061753	5.09181	0.00973082	1.47874	0.284286	0.804183	0.468383	0.287004	0.562051	0.518161	0.840325	0.309432	0.153416	2.17509	0.422663	0.598279	0.700786	0.350716	0.934072	0.120252
0.0664957	5.08879	0.0111448	1.55359	0.285063	0.864583	0.468662	0.310831	0.562553	0.558728	0.840625	0.334128	0.155504	2.30408	0.423243	0.646523	0.701126	0.37899	0.934189	0.130536
0.0712354	5.08545	0.0126258	1.62251	0.285897	0.924299	0.468962	0.334974	0.563092	0.599067	0.840948	0.358765	0.157709	2.42627	0.423868	0.694526	0.701492	0.407193	0.934316	0.140923
0.0759719	5.08184	0.0141682	1.68578	0.286786	0.983233	0.469286	0.359456	0.563669	0.639243	0.841293	0.383357	0.160025	2.54189	0.424537	0.742264	0.701885	0.435328	0.934452	0.151371
0.0807049	5.07799	0.015767	1.74376	0.287729	1.04134	0.469632	0.384251	0.564283	0.679163	0.841662	0.407931	0.162129	2.63752	0.425251	0.789693	0.702304	0.4634	0.934598	0.161938
0.0854342	5.07382	0.0174175	1.79667	0.288726	1.09858	0.470002	0.409451	0.564935	0.718867	0.842053	0.432469	0.163982	2.71539	0.426008	0.836872	0.702748	0.491418	0.934754	0.1726
0.0901594	5.06936	0.0191149	1.84484	0.289776	1.15492	0.470395	0.435023	0.565623	0.758359	0.842468	0.456936	0.165554	2.77722	0.42681	0.883767	0.703219	0.519403	0.934919	0.183376
0.0948804	5.06461	0.0208551	1.88867	0.290878	1.2104	0.470813	0.460971	0.566348	0.797571	0.842905	0.481408	0.166821	2.82462	0.427655	0.930317	0.703716	0.547248	0.935095	0.194235
0.0995967	5.0595	0.0226342	1.92844	0.292031	1.26488	0.471254	0.487378	0.567109	0.836518	0.843365	0.505814	0.167767	2.85854	0.428544	0.976541	0.704239	0.575034	0.935281	0.205187
0.104308	5.05405	0.0244486	1.96446	0.293235	1.3184	0.471721	0.514191	0.567906	0.875227	0.843847	0.530165	0.168378	2.87979	0.429475	1.02241	0.704788	0.602772	0.935478	0.216324
0.109014	5.04828	0.0262948	1.99702	0.294488	1.37095	0.472212	0.54145	0.56874	0.913681	0.844353	0.554476	0.169264	2.90998	0.430449	1.06793	0.705362	0.630417	0.935684	0.227538
0.113715	5.04216	0.0281698	2.02641	0.29579	1.42251	0.47273	0.569161	0.569609	0.951843	0.844881	0.57871	0.170238	2.94214	0.431465	1.11311	0.705963	0.657948	0.935902	0.238834
0.11841	5.03562	0.0300708	2.05296	0.297139	1.47305	0.473273	0.597337	0.570513	0.989716	0.845431	0.602934	0.171579	2.98463	0.432523	1.15785	0.706588	0.685397	0.936129	0.250293
0.123098	5.02869	0.0319953	2.07684	0.298535	1.52248	0.473843	0.626078	0.571453	1.0273	0.846004	0.627065	0.173302	3.03667	0.433622	1.20222	0.70724	0.712756	0.936368	0.261857
0.12778	5.02135	0.0339407	2.09829	0.299976	1.57095	0.47444	0.655287	0.572428	1.06461	0.8466	0.651158	0.175426	3.09719	0.434763	1.24621	0.707916	0.740009	0.936617	0.273561
0.132455	5.01357	0.0359052	2.11755	0.301462	1.61838	0.475064	0.684996	0.573437	1.10158	0.847217	0.675174	0.177968	3.16494	0.435945	1.28972	0.708619	0.767196	0.936878	0.285396
0.137123	5.00531	0.0378866	2.13482	0.302992	1.66475	0.475716	0.715262	0.57448	1.13823	0.847858	0.699108	0.180953	3.23863	0.437166	1.33287	0.709346	0.794249	0.937149	0.297348
0.141782	4.99658	0.0398832	2.15033	0.304564	1.7101	0.476397	0.746058	0.575558	1.17463	0.84852	0.723027	0.184003	3.30825	0.438428	1.37559	0.710099	0.821184	0.937432	0.309459
0.146433	4.98731	0.0418935	2.16413	0.306178	1.75445	0.477106	0.777401	0.576669	1.21073	0.849205	0.746841	0.187117	3.374	0.43973	1.41781	0.710876	0.848027	0.937726	0.321669
0.151075	4.97756	0.0439158	2.1765	0.307618	1.79233	0.477845	0.809325	0.577814	1.24645	0.849912	0.770593	0.19029	3.43603	0.44107	1.45964	0.711679	0.87476	0.938031	0.334005
0.155708	4.96721	0.0459491	2.18753	0.30887	1.82395	0.478614	0.841825	0.578992	1.28185	0.850641	0.794292	0.19352	3.49462	0.442449	1.50102	0.712506	0.901346	0.938348	0.346518
0.160331	4.95625	0.0477288	2.19617	0.309921	1.84971	0.479414	0.874893	0.580203	1.317	0.851392	0.817887	0.196802	3.55006	0.443867	1.54191	0.713358	0.927857	0.938677	0.359166
0.164944	4.94466	0.0492513	2.20284	0.310763	1.86984	0.480245	0.908582	0.581446	1.35176	0.852165	0.84142	0.200135	3.60243	0.445323	1.58229	0.714235	0.95422	0.939017	0.371938
0.169545	4.9324	0.0505135	2.20792	0.311387	1.88431	0.481107	0.942853	0.582721	1.3862	0.85296	0.864901	0.203515	3.6519	0.446816	1.62226	0.715136	0.980431	0.93937	0.384811
0.174135	4.91946	0.0515136	2.21184	0.311789	1.89363	0.482001	0.977706	0.584029	1.42037	0.853777	0.888281	0.20694	3.6988	0.448346	1.66178	0.716062	1.00656	0.939735	0.397812
0.178712	4.90572	0.05225	2.21434	0.312371	1.90711	0.482929	1.01313	0.585368	1.45421	0.854615	0.911601	0.210407	3.74315	0.449912	1.70074	0.717012	1.03253	0.940111	0.410998
0.183276	4.89121	0.0527218	2.21592	0.313008	1.92136	0.483889	1.0492	0.586739	1.48769	0.855475	0.934806	0.213915	3.78511	0.451515	1.73927	0.717986	1.05838	0.9405	0.424333
0.187826	4.87589	0.0534005	2.21823	0.313882	1.94057	0.484884	1.08588	0.58814	1.52081	0.856357	0.957923	0.21746	3.82491	0.453153	1.77728	0.718984	1.08409	0.940902	0.437746
0.192362	4.85967	0.054139	2.22052	0.315	1.96469	0.485913	1.12313	0.589573	1.55365	0.85726	0.981013	0.221042	3.86261	0.454826	1.81478	0.720006	1.10966	0.941316	0.451314
0.196882	4.84247	0.0551446	2.2236	0.316369	1.99338	0.486977	1.16102	0.591035	1.58614	0.858185	1.00398	0.224658	3.89834	0.456535	1.85185	0.721052	1.13508	0.941743	0.465048
0.201385	4.82425	0.0564183	2.22713	0.318001	2.02641	0.488076	1.19952	0.592528	1.61833	0.859131	1.02683	0.228306	3.93217	0.458277	1.8884	0.722121	1.16037	0.942183	0.478892
0.205871	4.80503	0.0579611	2.23106	0.319907	2.06353	0.489212	1.23856	0.594051	1.65018	0.860098	1.04961	0.231985	3.96425	0.460054	1.92445	0.723214	1.18552	0.942635	0.492885
0.210339	4.78467	0.0597743	2.23523	0.321847	2.09996	0.490384	1.27821	0.595603	1.68172	0.861087	1.07233	0.235693	3.99471	0.461863	1.96	0.72433	1.21049	0.943101	0.507027
0.214787	4.76308	0.0618589	2.23944	0.32382	2.13564	0.491594	1.31846	0.597185	1.71294	0.862097	1.09491	0.239429	4.02361	0.463706	1.99507	0.72547	1.2353	0.94358	0.521249
0.219214	4.74026	0.0639473	2.24316	0.325826	2.1707	0.492841	1.35928	0.598795	1.74383	0.863127	1.11743	0.243191	4.05094	0.465581	2.0296	0.726632	1.26003	0.944072	0.53563
0.22362	4.71615	0.0660388	2.24637	0.327865	2.20514	0.494126	1.40061	0.600434	1.77439	0.864179	1.13986	0.246977	4.07688	0.467241	2.05934	0.727818	1.28458	0.944578	0.550183
0.228002	4.69057	0.0681332	2.24915	0.329935	2.23903	0.495451	1.44249	0.602101	1.80461	0.865251	1.16214	0.250787	4.10153	0.468675	2.08441	0.729026	1.30892	0.945098	0.564861
0.23236	4.6635	0.0702299	2.25153	0.332037	2.27252	0.496637	1.47947	0.603797	1.83458	0.866344	1.18437	0.25462	4.12484	0.469874	2.1049	0.730257	1.33315	0.945631	0.579641
0.236692	4.63493	0.0723287	2.2536	0.33417	2.30564	0.497672	1.51126	0.60552	1.86419	0.867458	1.20648	0.258474	4.14694	0.47083	2.12101	0.73151	1.35721	0.946178	0.594552
0.240997	4.60465	0.0744292	2.25533	0.336333	2.33846	0.498544	1.53768	0.60727	1.89346	0.868592	1.22852	0.262347	4.16791	0.471538	2.13261	0.732786	1.38109	0.946739	0.609654
0.245272	4.57267	0.0765312	2.25678	0.338527	2.37109	0.499245	1.55886	0.609048	1.92249	0.869747	1.25041	0.26624	4.18777	0.471993	2.14012	0.734084	1.40483	0.947314	0.624843
0.249517	4.53888	0.0786345	2.25798	0.340752	2.40363	0.499766	1.57444	0.610853	1.95118	0.870922	1.27222	0.270151	4.20656	0.472649	2.15099	0.735404	1.42844	0.947903	0.640133
0.25373	4.50317	0.0807387	2.25895	0.343006	2.43616	0.500103	1.58437	0.612684	1.97955	0.872118	1.29393	0.274079	4.22434	0.473367	2.1625	0.736745	1.45184	0.948507	0.655626
0.257909	4.4655	0.0828438	2.25972	0.345291	2.46879	0.50059	1.59872	0.614541	2.00765	0.873333	1.31552	0.278022	4.24111	0.474349	2.17811	0.738109	1.47506	0.949125	0.671229
0.262051	4.42576	0.0849495	2.26033	0.347607	2.50166	0.501124	1.61448	0.616425	2.03544	0.874569	1.33703	0.281981	4.257	0.475601	2.19778	0.739494	1.49814	0.949757	0.68691
0.266155	4.38392	0.0870557	2.26082	0.349953	2.53491	0.50186	1.63606	0.618334	2.06289	0.875825	1.35836	0.285955	4.27201	0.477131	2.22127	0.7409	1.52107	0.950405	0.702816
0.27022	4.33995	0.0891622	2.2611	0.35233	2.56856	0.502804	1.66334	0.620269	2.0901	0.8771	1.37965	0.289942	4.28611	0.478945	2.24845	0.742328	1.5438	0.951067	0.718808
0.274242	4.29369	0.091269	2.26128	0.354739	2.60278	0.503967	1.69656	0.622229	2.11698	0.878396	1.40083	0.293942	4.29942	0.481055	2.27926	0.743777	1.56633	0.951744	0.734899
0.278221	4.24518	0.0933759	2.2614	0.35718	2.63772	0.50536	1.73583	0.624214	2.14358	0.879711	1.42189	0.297953	4.31193	0.483192	2.30957	0.745247	1.58876	0.952436	0.751187
0.282153	4.19444	0.0954828	2.26139	0.359654	2.67343	0.506998	1.78126	0.625964	2.16658	0.881045	1.44283	0.301976	4.32368	0.485358	2.33941	0.746738	1.61098	0.953144	0.767576
0.286037	4.14138	0.0975897	2.26128	0.362162	2.71011	0.508679	1.82697	0.62747	2.18598	0.882399	1.46362	0.30601	4.33469	0.487552	2.3688	0.748249	1.63302	0.953867	0.784096
0.28987	4.08601	0.0996965	2.26111	0.364704	2.74782	0.510403	1.87301	0.628725	2.2019	0.883773	1.48433	0.310054	4.34499	0.489772	2.3977	0.749781	1.65489	0.954605	0.800728
0.293651	4.02846	0.101803	2.26091	0.367282	2.78664	0.512169	1.91932	0.629725	2.2144	0.885165	1.50494	0.314106	4.35457	0.49202	2.42614	0.751333	1.6766	0.955359	0.817513
0.297376	3.96872	0.103909	2.2606	0.369897	2.8267	0.513979	1.96584	0.630463	2.22355	0.886577	1.52544	0.318168	4.36349	0.494293	2.45417	0.752905	1.69813	0.956128	0.834458
0.301046	3.90696	0.106015	2.26026	0.372549	2.86808	0.515832	2.01257	0.630937	2.22941	0.888008	1.54578	0.322237	4.3718	0.496593	2.48173	0.754497	1.71949	0.956914	0.851501
0.304196	3.85158	0.108121	2.2599	0.375241	2.91078	0.517729	2.05945	0.631621	2.2378	0.889457	1.56603	0.326314	4.3794	0.498918	2.50884	0.756109	1.74068	0.957715	0.868668
0.306845	3.80322	0.110227	2.25951	0.377973	2.95494	0.51967	2.10643	0.632367	2.24686	0.890926	1.58617	0.330398	4.38642	0.501268	2.53554	0.75774	1.76168	0.958532	0.885938
0.30901	3.7626	0.112332	2.25909	0.380747	3.00061	0.521654	2.15351	0.633387	2.25916	0.892413	1.60616	0.334488	4.39286	0.503642	2.56179	0.759392	1.78251	0.959366	0.903411
0.310705	3.72998	0.114436	2.25862	0.383564	3.04765	0.523683	2.20063	0.634684	2.27459	0.893919	1.62607	0.338583	4.39872	0.506041	2.58761	0.761062	1.80316	0.960216	0.921
0.311943	3.70589	0.11654	2.25813	0.386426	3.09611	0.525755	2.24778	0.636265	2.29308	0.895443	1.64583	0.342684	4.40399	0.508464	2.61305	0.762752	1.82364	0.961082	0.938673
0.31273	3.69033	0.118644	2.25763	0.389334	3.14601	0.527871	2.29483	0.638135	2.31462	0.896985	1.66549	0.34679	4.40868	0.51091	2.63808	0.76446	1.84396	0.961965	0.956514
0.313856	3.66766	0.120747	2.25713	0.392288	3.19722	0.530031	2.34179	0.640303	2.3391	0.898546	1.68503	0.350899	4.41282	0.51338	2.66267	0.765964	1.86151	0.962864	0.974471
0.315073	3.64302	0.12285	2.25662	0.395291	3.24956	0.532235	2.38863	0.642494	2.36332	0.900125	1.70442	0.355013	4.41642	0.515872	2.68691	0.767258	1.87637	0.963781	0.992586
0.316714	3.60927	0.124952	2.25607	0.398344	3.30301	0.534482	2.43531	0.644707	2.38729	0.901722	1.72372	0.359129	4.41954	0.518386	2.71075	0.768335	1.88866	0.964714	1.0108
0.318767	3.56615	0.127054	2.25554	0.401446	3.35734	0.536773	2.48175	0.646942	2.41099	0.903337	1.74291	0.363248	4.42213	0.520923	2.7342	0.769192	1.89826	0.965664	1.02914
0.321217	3.51359	0.129155	2.25505	0.4046	3.41238	0.539107	2.52798	0.6492	2.43445	0.90497	1.76195	0.367369	4.42416	0.523481	2.75732	0.769825	1.90518	0.966632	1.04765
0.324045	3.45144	0.131256	2.25452	0.407805	3.46795	0.541483	2.57394	0.651479	2.45765	0.90662	1.78084	0.371492	4.42568	0.526061	2.78005	0.770231	1.90972	0.967616	1.06628
0.327227	3.37972	0.133356	2.25396	0.411062	3.52379	0.543903	2.61951	0.653779	2.48063	0.908288	1.79965	0.375616	4.42677	0.528662	2.80243	0.770817	1.91623	0.968618	1.08502
0.330342	3.30782	0.135456	2.25342	0.414371	3.57972	0.546365	2.66475	0.656101	2.50337	0.909974	1.81836	0.379741	4.42732	0.531283	2.8245	0.771456	1.92315	0.969638	1.1039
0.333391	3.23598	0.137555	2.2529	0.417732	3.63545	0.548868	2.7096	0.658444	2.52583	0.911677	1.8369	0.383866	4.42737	0.533925	2.84623	0.772328	1.93268	0.970675	1.12291
0.336372	3.16451	0.139654	2.25238	0.421145	3.6907	0.551414	2.75399	0.660808	2.54805	0.913397	1.85531	0.387991	4.42696	0.536587	2.86764	0.773438	1.94458	0.971731	1.14203
0.339287	3.09361	0.141752	2.2519	0.424609	3.74532	0.554	2.79798	0.663192	2.57007	0.915134	1.87366	0.392115	4.42602	0.539268	2.88871	0.774788	1.9589	0.972803	1.16131
0.342137	3.02367	0.14385	2.25137	0.428124	3.79911	0.556627	2.84144	0.665597	2.59189	0.916888	1.89184	0.396238	4.42467	0.54197	2.90946	0.776386	1.9756	0.973894	1.18073
0.344922	2.95482	0.145947	2.25084	0.431689	3.85175	0.559295	2.88437	0.668022	2.61345	0.918431	1.90757	0.40036	4.42283	0.54469	2.92998	0.778235	1.9946	0.975004	1.20025
0.347643	2.88729	0.148044	2.25036	0.435301	3.90308	0.562002	2.92682	0.670467	2.63482	0.919755	1.92089	0.404479	4.42048	0.547429	2.9502	0.780102	2.01341	0.976131	1.21988
0.350302	2.8213	0.150141	2.2499	0.438962	3.95298	0.564749	2.96866	0.672931	2.65594	0.920858	1.93193	0.408597	4.41765	0.550187	2.97013	0.781987	2.03204	0.977277	1.23966
0.3529	2.75703	0.152237	2.24941	0.442667	4.0013	0.567534	3.0099	0.675416	2.67682	0.921734	1.94064	0.412711	4.41437	0.552964	2.9898	0.783889	2.05051	0.978441	1.25959
0.355439	2.69461	0.154332	2.24892	0.446418	4.04787	0.570357	3.0506	0.677919	2.69756	0.922381	1.94679	0.416823	4.41065	0.555758	3.00923	0.785808	2.06886	0.979624	1.27961
0.357921	2.63407	0.156427	2.24845	0.45021	4.09258	0.573218	3.09064	0.680442	2.71811	0.922796	1.95084	0.42093	4.4064	0.558571	3.02839	0.787744	2.08705	0.98067	1.29714
0.360348	2.5756	0.158522	2.24799	0.454044	4.13545	0.576116	3.13004	0.682984	2.73838	0.923394	1.95684	0.425033	4.40172	0.561401	3.04734	0.789697	2.105	0.981573	1.31222
0.362721	2.51926	0.160616	2.24758	0.457916	4.17632	0.579051	3.16878	0.685545	2.75847	0.924046	1.96309	0.429132	4.39655	0.564249	3.06609	0.791666	2.12284	0.982327	1.32469
0.365042	2.46506	0.16271	2.24712	0.461826	4.21515	0.582021	3.20686	0.688124	2.77845	0.924937	1.97161	0.433226	4.39086	0.567115	3.08461	0.793653	2.14055	0.982929	1.33464
0.367314	2.41301	0.164803	2.24671	0.465771	4.25202	0.585026	3.24433	0.690722	2.79817	0.926068	1.9824	0.437314	4.38475	0.569997	3.10296	0.795655	2.15809	0.983374	1.34187
0.369538	2.36312	0.166896	2.24632	0.469749	4.28691	0.588067	3.28111	0.693339	2.81771	0.927445	1.99533	0.441396	4.37819	0.572897	3.12107	0.797674	2.17546	0.983661	1.34658
0.371717	2.31535	0.168989	2.24586	0.473759	4.31977	0.59114	3.31719	0.695973	2.83707	0.929071	2.01047	0.445472	4.37106	0.575813	3.13902	0.799709	2.19268	0.984074	1.35341
0.373853	2.26976	0.171081	2.24546	0.477798	4.3507	0.594248	3.35256	0.698625	2.85623	0.930952	2.02766	0.449541	4.3635	0.578746	3.15682	0.80176	2.20975	0.984526	1.36068
0.375947	2.22627	0.173173	2.24507	0.481866	4.37971	0.597388	3.38727	0.701295	2.8753	0.932849	2.04479	0.453603	4.35547	0.581695	3.17448	0.803827	2.22667	0.985144	1.37067
0.378001	2.18478	0.175265	2.24469	0.485959	4.40685	0.60056	3.42132	0.703983	2.89417	0.934762	2.06178	0.457657	4.34692	0.584661	3.19198	0.805909	2.24344	0.985932	1.38338
0.380018	2.14525	0.177356	2.24436	0.490078	4.43222	0.603763	3.45464	0.706688	2.9128	0.936691	2.07866	0.461703	4.33788	0.587643	3.20934	0.808007	2.26007	0.986894	1.39884
0.381999	2.10773	0.179447	2.24397	0.494218	4.45581	0.606997	3.48731	0.709411	2.93134	0.938636	2.09537	0.46574	4.32835	0.590642	3.22659	0.81012	2.27655	0.988038	1.41699
0.383945	2.07205	0.181537	2.24359	0.49838	4.47768	0.610261	3.51928	0.71215	2.94977	0.940596	2.11197	0.469769	4.31834	0.593656	3.24371	0.812249	2.29292	0.989368	1.43801
0.38586	2.03813	0.183628	2.24326	0.502562	4.49795	0.613555	3.55057	0.714907	2.96799	0.942571	2.12847	0.473787	4.30784	0.596686	3.26073	0.814393	2.30916	0.990717	1.4591
0.387743	2.00601	0.185717	2.24291	0.506762	4.51673	0.616877	3.58119	0.717681	2.98607	0.944562	2.14482	0.477796	4.29681	0.599732	3.2777	0.816552	2.32523	0.992086	1.48026
0.389598	1.97548	0.187807	2.24259	0.510978	4.53396	0.620228	3.61116	0.720471	3.00401	0.946568	2.16108	0.481794	4.28529	0.602793	3.29457	0.818726	2.34113	0.993475	1.50158
0.391424	1.94656	0.189896	2.24228	0.51521	4.54975	0.623606	3.64049	0.723278	3.02181	0.948589	2.1772	0.485781	4.27326	0.605871	3.31136	0.820914	2.35696	0.994884	1.523
0.393225	1.91921	0.191985	2.24198	0.519456	4.56424	0.627011	3.66911	0.726102	3.0395	0.950625	2.1932	0.489757	4.2607	0.608964	3.3281	0.823118	2.37267	0.996313	1.54455
0.395001	1.8933	0.194074	2.24164	0.523715	4.57738	0.630443	3.69712	0.728942	3.05706	0.952675	2.20908	0.49372	4.24768	0.612072	3.34478	0.825336	2.38822	0.997763	1.5662
0.396753	1.86874	0.196162	2.24133	0.527986	4.58929	0.633901	3.72452	0.731799	3.07451	0.954741	2.22482	0.497672	4.23413	0.615196	3.36144	0.827568	2.40369	0.999232	1.58794
0.398483	1.84554	0.19825	2.24106	0.532267	4.60005	0.637383	3.75126	0.734671	3.09181	0.956821	2.24049	0.50161	4.22004	0.618336	3.37804	0.829815	2.419	1.00072	1.59885
0.400192	1.82362	0.200338	2.24079	0.536558	4.60967	0.640891	3.77738	0.73756	3.109	0.958916	2.25601	0.505535	4.20545	0.621491	3.39458	0.832075	2.4342		
0.401881	1.80284	0.202426	2.2405	0.540857	4.61822	0.644422	3.80289	0.740465	3.12608	0.961025	2.27139	0.509447	4.19035	0.624661	3.41117	0.83435	2.44934		
0.403551	1.7833	0.204513	2.24021	0.545163	4.62576	0.647977	3.82784	0.743385	3.14309	0.963148	2.28666	0.513344	4.17475	0.627847	3.42773	0.836639	2.46431		
