Sym0		Asym0		Sym1		Sym2		Sym3		Sym4		Asym1		Asym2		Asym3		Asym4	
469  Points		497  Points		231  Points		196  Points		183  Points		128  Points		338  Points		209  Points		171  Points		106  Points	
Freq (MHz)	Vph (m/ms)	Freq (MHz)	Vph (m/ms)	Freq (MHz)	Vph (m/ms)	Freq (MHz)	Vph (m/ms)	Freq (MHz)	Vph (m/ms)	Freq (MHz)	Vph (m/ms)	Freq (MHz)	Vph (m/ms)	Freq (MHz)	Vph (m/ms)	Freq (MHz)	Vph (m/ms)	Freq (MHz)	Vph (m/ms)
0.0021051	5.23924	5.62818e-005	0.0653904	0.279522	472.168	0.468629	525.235	0.559024	1059.27	0.838528	1964.86	0.139801	215.702	0.419264	2386.19	0.698773	2332.68	0.937239	3640.98
0.00698645	5.23922	0.000243641	0.13593	0.279595	183.498	0.46866	256.952	0.559067	383.07	0.838551	617.282	0.140029	88.6364	0.419297	378.632	0.698796	567.548	0.937246	788.192
0.0118674	5.23906	0.000560898	0.205903	0.279732	113.926	0.468712	170.093	0.559152	233.844	0.838599	366.176	0.140448	55.9216	0.419379	205.669	0.698847	323.099	0.937263	441.937
0.0167479	5.23881	0.00100556	0.275061	0.279934	82.6475	0.468786	127.135	0.559277	168.314	0.838671	260.308	0.141054	40.9658	0.41951	141.212	0.698926	225.85	0.937288	307.056
0.0216275	5.2385	0.00157417	0.343144	0.2802	64.8794	0.468881	101.511	0.559444	131.494	0.838768	201.94	0.141843	32.422	0.41969	107.544	0.699033	173.615	0.937323	235.26
0.0265063	5.23812	0.00226249	0.409932	0.280529	53.4293	0.468997	84.4933	0.559651	107.911	0.838889	164.965	0.142812	26.9122	0.419918	86.8644	0.699168	141.017	0.937368	190.681
0.0313837	5.23763	0.00306564	0.475229	0.280922	45.4407	0.469136	72.3707	0.559899	91.5179	0.839034	139.445	0.143955	23.0761	0.420195	72.8762	0.699332	118.738	0.937421	160.309
0.0362597	5.23708	0.00397809	0.538849	0.281378	39.5534	0.469296	63.2978	0.560187	79.4636	0.839203	120.773	0.145267	20.2604	0.42052	62.787	0.699523	102.548	0.937485	138.287
0.041134	5.23643	0.00499394	0.600647	0.281896	35.0375	0.469477	56.2532	0.560516	70.2286	0.839397	106.518	0.14674	18.1123	0.420893	55.1683	0.699742	90.253	0.937557	121.587
0.0460063	5.2357	0.00610712	0.660518	0.282477	31.4659	0.469682	50.626	0.560885	62.9289	0.839615	95.2807	0.148369	16.4245	0.421315	49.2135	0.699989	80.5992	0.937639	108.49
0.0508765	5.23488	0.0073114	0.718377	0.283119	28.5721	0.469908	46.028	0.561295	57.0149	0.839857	86.1948	0.150145	15.0672	0.421784	44.4327	0.700264	72.819	0.937731	97.9419
0.0557443	5.23399	0.0086004	0.774159	0.283823	26.1813	0.470158	42.2011	0.561744	52.1273	0.840124	78.6971	0.152063	13.9549	0.422301	40.511	0.700567	66.4158	0.937833	89.2659
0.0606093	5.233	0.00996798	0.827833	0.284586	24.1741	0.47043	38.9668	0.562234	48.021	0.840415	72.4052	0.154115	13.0292	0.422865	37.237	0.700898	61.0543	0.937944	82.0042
0.0654714	5.23192	0.0114081	0.879389	0.285409	22.4661	0.470725	36.1978	0.562763	44.5231	0.84073	67.0503	0.156295	12.2486	0.423477	34.4634	0.701256	56.5001	0.938065	75.8372
0.0703303	5.23076	0.0129149	0.928833	0.286292	20.9957	0.471044	33.8006	0.563331	41.5085	0.841069	62.4379	0.158594	11.5831	0.424136	32.0843	0.701642	52.5839	0.938196	70.535
0.0751857	5.2295	0.0144828	0.976185	0.287232	19.7174	0.471387	31.7055	0.563939	38.8839	0.841432	58.4239	0.161007	11.0101	0.424842	30.0217	0.702056	49.1808	0.938337	65.9276
0.0800372	5.22815	0.0161066	1.02148	0.288229	18.5965	0.471754	29.8591	0.564586	36.5786	0.841819	54.8993	0.163198	10.5729	0.425594	28.2171	0.702497	46.1966	0.938488	61.887
0.0848847	5.22669	0.0177812	1.06477	0.289283	17.6062	0.472146	28.2197	0.565272	34.5383	0.842231	51.78	0.165126	10.2387	0.426392	26.6253	0.702966	43.5586	0.93865	58.3149
0.0897278	5.22515	0.019502	1.10611	0.290393	16.7253	0.472562	26.7548	0.565997	32.7199	0.842666	49	0.166762	9.98579	0.427236	25.2113	0.703462	41.2103	0.938822	55.1342
0.0945662	5.2235	0.0212648	1.14555	0.291557	15.9371	0.473004	25.438	0.56676	31.0895	0.843126	46.5071	0.16808	9.7992	0.428126	23.9472	0.703985	39.1065	0.939004	52.2842
0.0993996	5.22175	0.0230655	1.18317	0.292775	15.2282	0.473472	24.2481	0.567561	29.6196	0.843609	44.2592	0.169063	9.66895	0.429061	22.8108	0.704536	37.2112	0.939197	49.7158
0.104228	5.21989	0.0249005	1.21904	0.294046	14.5873	0.473966	23.168	0.5684	28.288	0.844116	42.2219	0.169698	9.58849	0.430042	21.7839	0.705114	35.495	0.939401	47.3894
0.10905	5.21792	0.0267663	1.25322	0.295368	14.0056	0.474487	22.1832	0.569277	27.0761	0.844647	40.3673	0.17062	9.47663	0.431066	20.8517	0.705719	33.934	0.939615	45.2724
0.113866	5.21584	0.02866	1.2858	0.296741	13.4754	0.475035	21.2818	0.57019	25.9688	0.845202	38.6718	0.171632	9.35985	0.432135	20.0019	0.706352	32.508	0.939841	43.3378
0.118675	5.21364	0.0305787	1.31683	0.298163	12.9903	0.475611	20.4538	0.571141	24.9533	0.84578	37.1161	0.173025	9.20858	0.433248	19.2244	0.707011	31.2005	0.940078	41.5631
0.123478	5.21133	0.0325197	1.3464	0.299634	12.5452	0.476214	19.6908	0.572129	24.0187	0.846382	35.6835	0.174815	9.02884	0.434404	18.5104	0.707697	29.9974	0.940326	39.9293
0.128273	5.20889	0.0344809	1.37457	0.301153	12.1354	0.476847	18.9856	0.573153	23.156	0.847008	34.3602	0.17702	8.82717	0.435603	17.8527	0.708409	28.8868	0.940586	38.4203
0.133061	5.20632	0.03646	1.40142	0.302718	11.7571	0.477509	18.3319	0.574213	22.3573	0.847657	33.1342	0.17966	8.6102	0.436845	17.2451	0.709149	27.8586	0.940857	37.0224
0.13784	5.20362	0.0384551	1.427	0.304329	11.4069	0.4782	17.7245	0.575309	21.6158	0.848329	31.9953	0.182756	8.38422	0.438128	16.6822	0.709915	26.9039	0.941139	35.7238
0.14261	5.20079	0.0404646	1.45139	0.305984	11.0819	0.478922	17.1587	0.576441	20.9258	0.849025	30.9345	0.18592	8.17975	0.439454	16.1594	0.710707	26.0154	0.941434	34.5144
0.147372	5.19781	0.0424868	1.47464	0.307683	10.7797	0.479675	16.6305	0.577608	20.2822	0.849745	29.9442	0.189148	7.99409	0.440821	15.6728	0.711526	25.1864	0.941741	33.3853
0.152123	5.19468	0.0445203	1.49682	0.309198	10.5331	0.48046	16.1365	0.578809	19.6805	0.850487	29.0176	0.192437	7.82496	0.442228	15.2187	0.71237	24.4112	0.942059	32.3288
0.156864	5.19141	0.0463007	1.51531	0.310514	10.3343	0.481276	15.6734	0.580045	19.1169	0.851253	28.149	0.195782	7.67041	0.443676	14.7942	0.713241	23.6849	0.94239	31.3382
0.161594	5.18797	0.0478238	1.53049	0.31162	10.1773	0.482125	15.2387	0.581316	18.588	0.852042	27.3329	0.199182	7.52877	0.445164	14.3965	0.714138	23.003	0.942734	30.4075
0.166312	5.18437	0.0490867	1.54266	0.312505	10.0575	0.483008	14.8299	0.58262	18.0908	0.852854	26.565	0.202632	7.39863	0.446691	14.0234	0.715061	22.3616	0.94309	29.5315
0.171017	5.1806	0.0500874	1.55203	0.313161	9.97186	0.483924	14.4448	0.583958	17.6225	0.853689	25.8411	0.20613	7.27875	0.448258	13.6726	0.716009	21.7573	0.943458	28.7056
0.17571	5.17665	0.0508242	1.55879	0.313584	9.91807	0.484875	14.0816	0.585329	17.1808	0.854546	25.1576	0.209674	7.16805	0.449862	13.3424	0.716983	21.1871	0.94384	27.9256
0.180389	5.17251	0.0512963	1.56306	0.314196	9.84212	0.485861	13.7385	0.586734	16.7636	0.855427	24.5112	0.21326	7.0656	0.451505	13.031	0.717983	20.6481	0.944234	27.1878
0.185053	5.16817	0.0519755	1.56912	0.314865	9.76134	0.486883	13.414	0.58817	16.3689	0.85633	23.899	0.216887	6.97059	0.453185	12.737	0.719007	20.138	0.944642	26.4889
0.189701	5.16363	0.0527146	1.5756	0.315783	9.65437	0.487941	13.1067	0.589639	15.9951	0.857256	23.3185	0.220552	6.88231	0.454902	12.459	0.720057	19.6545	0.945063	25.826
0.194333	5.15888	0.0537209	1.58425	0.316958	9.52363	0.489036	12.8154	0.59114	15.6405	0.858204	22.7673	0.224254	6.80011	0.456656	12.1959	0.721132	19.1957	0.945497	25.1963
0.198947	5.15391	0.0549956	1.59493	0.318397	9.37197	0.490169	12.5389	0.592673	15.3038	0.859175	22.2433	0.227989	6.72344	0.458445	11.9464	0.722232	18.7597	0.945945	24.5975
0.203543	5.1487	0.0565396	1.60744	0.320111	9.2025	0.49134	12.2763	0.594237	14.9837	0.860168	21.7445	0.231758	6.65181	0.46027	11.7097	0.723357	18.345	0.946407	24.0274
0.20812	5.14324	0.0583543	1.6216	0.322112	9.01847	0.49255	12.0266	0.595832	14.6791	0.861184	21.2692	0.235557	6.58476	0.46213	11.4848	0.724506	17.95	0.946882	23.484
0.212675	5.13754	0.0604407	1.63719	0.324149	8.84477	0.493799	11.7889	0.597458	14.3888	0.862222	20.8159	0.239385	6.52191	0.464025	11.2709	0.72568	17.5734	0.947371	22.9655
0.217209	5.13156	0.0625308	1.65211	0.32622	8.68062	0.495088	11.5625	0.599114	14.1121	0.863281	20.383	0.243241	6.46291	0.465954	11.0673	0.726877	17.214	0.947875	22.4702
0.221719	5.1253	0.0646241	1.6664	0.328326	8.52529	0.496417	11.3466	0.6008	13.8479	0.864363	19.9692	0.247123	6.40743	0.467916	10.8732	0.7281	16.8707	0.948392	21.9966
0.226205	5.11875	0.0667202	1.68009	0.330466	8.37817	0.497788	11.1407	0.602515	13.5955	0.865467	19.5734	0.251029	6.3552	0.469652	10.7115	0.729345	16.5425	0.948924	21.5434
0.230665	5.1119	0.0688186	1.6932	0.332639	8.23865	0.499201	10.9441	0.604261	13.3541	0.866592	19.1944	0.254959	6.30595	0.471152	10.5787	0.730615	16.2284	0.949471	21.1093
0.235097	5.10472	0.0709191	1.70578	0.334844	8.10623	0.500466	10.78	0.606035	13.1231	0.867739	18.8312	0.258911	6.25945	0.472406	10.4723	0.731909	15.9275	0.950032	20.6932
0.2395	5.0972	0.0730212	1.71784	0.337083	7.98042	0.50157	10.6451	0.607838	12.9018	0.868908	18.4829	0.262884	6.2155	0.473406	10.3902	0.733226	15.639	0.950608	20.2939
0.243872	5.08933	0.0751248	1.72942	0.339354	7.86078	0.502501	10.5368	0.609669	12.6898	0.870098	18.1485	0.266877	6.1739	0.474146	10.331	0.734566	15.3624	0.951199	19.9105
0.248211	5.0811	0.0772295	1.74054	0.341657	7.74694	0.503249	10.4533	0.611528	12.4863	0.87131	17.8274	0.270888	6.13448	0.474622	10.2936	0.73593	15.0967	0.951805	19.542
0.252516	5.07247	0.0793352	1.75123	0.343992	7.63852	0.503805	10.393	0.613416	12.291	0.872543	17.5186	0.274917	6.09708	0.475309	10.2405	0.737316	14.8415	0.952427	19.1877
0.256784	5.06345	0.0814416	1.7615	0.346359	7.53519	0.504164	10.355	0.615331	12.1035	0.873797	17.2216	0.278963	6.06155	0.476059	10.1837	0.738726	14.5961	0.953063	18.8468
0.261014	5.05401	0.0835486	1.77137	0.348759	7.43667	0.504684	10.3009	0.617273	11.9231	0.875072	16.9358	0.283024	6.02777	0.477086	10.1078	0.740158	14.3601	0.953715	18.5185
0.265204	5.04413	0.0856559	1.78088	0.351192	7.34267	0.505255	10.243	0.619242	11.7497	0.876368	16.6605	0.2871	5.99562	0.478395	10.0141	0.741612	14.1328	0.954383	18.2022
0.26935	5.0338	0.0877636	1.79002	0.353658	7.25294	0.50604	10.1656	0.621238	11.5828	0.877685	16.3951	0.29119	5.96497	0.479993	9.90408	0.743089	13.9139	0.955066	17.8972
0.273452	5.02299	0.0898714	1.79883	0.356158	7.16726	0.507048	10.0701	0.62326	11.4221	0.879023	16.1392	0.295294	5.93573	0.481889	9.77937	0.744588	13.7029	0.955766	17.603
0.277507	5.01171	0.0919792	1.80732	0.358692	7.08541	0.508289	9.95785	0.625308	11.2673	0.880381	15.8923	0.299409	5.90782	0.484092	9.64179	0.746109	13.4995	0.956481	17.3189
0.281513	4.99992	0.0940871	1.8155	0.361261	7.0072	0.509776	9.83063	0.627382	11.118	0.88176	15.6539	0.303536	5.88113	0.486325	9.50979	0.747652	13.3031	0.957212	17.0446
0.285467	4.98761	0.0961948	1.82339	0.363867	6.93246	0.511526	9.69025	0.62921	10.9922	0.883159	15.4236	0.307673	5.85559	0.488587	9.38307	0.749217	13.1136	0.95796	16.7796
0.289367	4.97477	0.0983024	1.831	0.366509	6.86102	0.51332	9.55559	0.630783	10.8881	0.884578	15.2011	0.311821	5.83113	0.490877	9.26133	0.750802	12.9305	0.958724	16.5233
0.293211	4.96139	0.10041	1.83835	0.36919	6.79273	0.51516	9.42636	0.632095	10.804	0.886018	14.9859	0.315978	5.80768	0.493194	9.14432	0.75241	12.7535	0.959505	16.2754
0.296997	4.94746	0.102517	1.84544	0.37191	6.72745	0.517047	9.30229	0.633139	10.7387	0.887478	14.7777	0.320143	5.78517	0.495539	9.03178	0.754038	12.5824	0.960302	16.0355
0.300724	4.93297	0.104623	1.8523	0.374671	6.66506	0.518979	9.18313	0.63391	10.6915	0.888957	14.5762	0.324316	5.76355	0.497912	8.92348	0.755687	12.4169	0.961116	15.8033
0.304387	4.91791	0.10673	1.85893	0.377474	6.60544	0.520958	9.06863	0.634405	10.6615	0.890457	14.3811	0.328497	5.74276	0.50031	8.81921	0.757358	12.2567	0.961947	15.5783
0.307988	4.90228	0.108835	1.86534	0.38032	6.54848	0.522983	8.95859	0.635119	10.6189	0.891976	14.1921	0.332684	5.72275	0.502735	8.71876	0.759048	12.1016	0.962795	15.3602
0.311522	4.88609	0.110941	1.87154	0.383211	6.49408	0.525054	8.85278	0.635898	10.5731	0.893515	14.0089	0.336878	5.70347	0.505185	8.62194	0.760759	11.9513	0.96366	15.1489
0.31499	4.86932	0.113046	1.87754	0.386147	6.44213	0.527172	8.75102	0.636963	10.5117	0.895073	13.8313	0.341077	5.68489	0.507661	8.52858	0.762491	11.8057	0.964543	14.9439
0.31839	4.852	0.11515	1.88335	0.389132	6.39255	0.529337	8.65312	0.638318	10.4355	0.89665	13.659	0.34528	5.66695	0.510161	8.4385	0.764242	11.6646	0.965443	14.745
0.321297	4.83645	0.117254	1.88897	0.392164	6.34526	0.531547	8.55891	0.639968	10.3454	0.898247	13.4918	0.349488	5.64962	0.512686	8.35156	0.766014	11.5277	0.96636	14.5519
0.323733	4.82287	0.119358	1.89442	0.395247	6.30016	0.533805	8.46821	0.641921	10.2426	0.899863	13.3296	0.3537	5.63287	0.515235	8.2676	0.767805	11.3949	0.967296	14.3645
0.325718	4.81143	0.121461	1.89971	0.398381	6.25718	0.536108	8.38089	0.644184	10.1281	0.901497	13.172	0.357915	5.61665	0.517807	8.18649	0.769381	11.2823	0.968249	14.1824
0.327269	4.80224	0.123563	1.90484	0.401566	6.21624	0.538458	8.29677	0.646471	10.0173	0.903151	13.0189	0.362133	5.60095	0.520403	8.10809	0.770737	11.1887	0.96922	14.0055
0.328399	4.7954	0.125665	1.90981	0.404804	6.17727	0.540853	8.21574	0.648781	9.91006	0.904823	12.8702	0.366352	5.58572	0.523021	8.03229	0.771866	11.1127	0.97021	13.8335
0.329118	4.791	0.127767	1.91464	0.408095	6.1402	0.543294	8.13765	0.651114	9.80614	0.906514	12.7256	0.370574	5.57095	0.525662	7.95897	0.772764	11.0536	0.971217	13.6664
0.330144	4.78462	0.129868	1.91932	0.411439	6.10494	0.54578	8.06237	0.653469	9.70543	0.908224	12.585	0.374796	5.5566	0.528326	7.88802	0.773427	11.0107	0.972243	13.5038
0.331251	4.77762	0.131968	1.92387	0.414837	6.07142	0.548311	7.9898	0.655847	9.60779	0.909952	12.4482	0.379019	5.54265	0.531011	7.81934	0.773853	10.9835	0.973288	13.3456
0.332742	4.76801	0.134068	1.9283	0.418289	6.03958	0.550887	7.91981	0.658247	9.51311	0.911698	12.3151	0.383243	5.52907	0.533717	7.75282	0.774467	10.9446	0.974351	13.1916
0.334605	4.75569	0.136167	1.93259	0.421793	6.00934	0.553507	7.85229	0.660669	9.42126	0.913462	12.1856	0.387465	5.51585	0.536444	7.68839	0.775136	10.9028	0.975433	13.0418
0.336822	4.74058	0.138266	1.93677	0.42535	5.98063	0.55617	7.78715	0.663113	9.33212	0.915244	12.0595	0.391687	5.50297	0.539193	7.62595	0.77605	10.8466	0.976533	12.8958
0.339375	4.72254	0.140364	1.94083	0.428959	5.95338	0.558877	7.72428	0.665578	9.24559	0.917044	11.9367	0.395908	5.4904	0.541961	7.56541	0.777212	10.7767	0.977653	12.7537
0.34224	4.70146	0.142462	1.94479	0.432619	5.92753	0.561626	7.6636	0.668065	9.16156	0.918861	11.817	0.400126	5.47812	0.54475	7.50672	0.778628	10.6937	0.978792	12.6152
0.345039	4.68	0.14456	1.94864	0.436328	5.90299	0.564418	7.605	0.670573	9.07994	0.920697	11.7004	0.404343	5.46612	0.547559	7.44978	0.780301	10.5985	0.979951	12.4803
0.347771	4.6582	0.146657	1.95238	0.440085	5.87971	0.567251	7.54842	0.673101	9.00062	0.92231	11.6012	0.408556	5.45438	0.550388	7.39453	0.782238	10.492	0.981128	12.3488
0.35044	4.63608	0.148753	1.95603	0.443889	5.85761	0.570125	7.49375	0.67565	8.92354	0.923696	11.5184	0.412766	5.44288	0.553236	7.3409	0.784193	10.3884	0.982326	12.2205
0.353046	4.61369	0.150849	1.95958	0.447737	5.83664	0.573039	7.44094	0.67822	8.84859	0.92485	11.451	0.416972	5.43162	0.556103	7.28883	0.786167	10.2876	0.983543	12.0955
0.355591	4.59105	0.152945	1.96305	0.451629	5.81673	0.575994	7.3899	0.68081	8.77571	0.925766	11.3985	0.421174	5.42057	0.558989	7.23826	0.788158	10.1894	0.984779	11.9735
0.358077	4.5682	0.15504	1.96642	0.455563	5.79782	0.578987	7.34056	0.68342	8.70481	0.926443	11.3603	0.425372	5.40972	0.561893	7.18914	0.790167	10.0938	0.986036	11.8545
0.360507	4.54517	0.157134	1.96971	0.459535	5.77984	0.582019	7.29285	0.68605	8.63582	0.926877	11.336	0.429564	5.39906	0.564816	7.14141	0.792194	10.0007	0.987148	11.7531
0.362881	4.522	0.159229	1.97292	0.463545	5.76275	0.585089	7.24671	0.688699	8.56868	0.927502	11.3014	0.43375	5.38857	0.567757	7.09501	0.794238	9.90991	0.988107	11.6684
0.365203	4.4987	0.161323	1.97606	0.467591	5.74648	0.588196	7.20208	0.691368	8.50331	0.928184	11.264	0.43793	5.37825	0.570716	7.04991	0.796299	9.82146	0.988909	11.5995
0.367475	4.47532	0.163416	1.97911	0.47167	5.73099	0.591339	7.1589	0.694056	8.43966	0.929115	11.2137	0.442103	5.36808	0.573693	7.00605	0.798378	9.73522	0.989549	11.5457
0.369698	4.45188	0.165509	1.9821	0.475781	5.71623	0.594518	7.11712	0.696763	8.37767	0.930299	11.151	0.446269	5.35805	0.576687	6.96339	0.800473	9.65113	0.990022	11.5065
0.371875	4.42841	0.167602	1.98501	0.479922	5.70215	0.597732	7.07666	0.69949	8.31728	0.931738	11.0763	0.450428	5.34815	0.579699	6.92189	0.802586	9.56911	0.990326	11.4817
0.374008	4.40493	0.169694	1.98785	0.48409	5.6887	0.600981	7.0375	0.702235	8.25843	0.933438	10.9905	0.454578	5.33837	0.582729	6.8815	0.804715	9.48908	0.990766	11.4461
0.376098	4.38147	0.171786	1.99063	0.488284	5.67585	0.604263	6.99957	0.704998	8.20107	0.935405	10.8941	0.458719	5.32871	0.585775	6.8422	0.80686	9.41099	0.991246	11.4078
0.378148	4.35806	0.173878	1.99335	0.492503	5.66355	0.607579	6.96283	0.70778	8.14515	0.937388	10.8	0.462852	5.31914	0.588838	6.80393	0.809022	9.33476	0.991903	11.3562
0.38016	4.3347	0.175969	1.996	0.496744	5.65177	0.610926	6.92723	0.710581	8.09063	0.939388	10.7081	0.466974	5.30967	0.591919	6.76668	0.8112	9.26034	0.992741	11.2918
0.382136	4.31142	0.17806	1.9986	0.501006	5.64047	0.614306	6.89273	0.713399	8.03746	0.941404	10.6183	0.471087	5.30028	0.595016	6.7304	0.813394	9.18767	0.993764	11.2152
0.384076	4.28824	0.18015	2.00114	0.505288	5.62962	0.617716	6.85928	0.716235	7.98559	0.943436	10.5306	0.475189	5.29097	0.59813	6.69506	0.815604	9.11669	0.99498	11.127
0.385985	4.26518	0.18224	2.00362	0.509587	5.61919	0.621156	6.82686	0.71909	7.93499	0.945484	10.4448	0.479279	5.28172	0.60126	6.66064	0.81783	9.04735	0.996394	11.0279
0.387861	4.24224	0.18433	2.00605	0.513902	5.60914	0.624626	6.79541	0.721962	7.88561	0.947548	10.361	0.483358	5.27254	0.604407	6.6271	0.820072	8.97959	0.99783	10.931
0.389709	4.21945	0.18642	2.00842	0.518232	5.59947	0.628125	6.7649	0.724852	7.83742	0.949628	10.279	0.487425	5.2634	0.60757	6.59442	0.822329	8.91337	0.999286	10.8364
0.391528	4.19681	0.188509	2.01075	0.522576	5.59012	0.631652	6.7353	0.727759	7.79037	0.951724	10.1989	0.491479	5.25432	0.61075	6.56257	0.824601	8.84864	1.00076	10.7439
0.393321	4.17434	0.190598	2.01303	0.526932	5.5811	0.635206	6.70658	0.730683	7.74444	0.953835	10.1204	0.495519	5.24527	0.613946	6.53152	0.826889	8.78536		
0.395089	4.15205	0.192687	2.01526	0.531299	5.57236	0.638788	6.6787	0.733625	7.69958	0.955961	10.0437	0.499546	5.23625	0.617159	6.50126	0.829192	8.72348		
0.396833	4.12994	0.194775	2.01744	0.535676	5.5639	0.642396	6.65162	0.736584	7.65578	0.958103	9.96863	0.503559	5.22726	0.620387	6.47175	0.83151	8.66295		
0.398555	4.10802	0.196863	2.01958	0.540062	5.55569	0.646029	6.62533	0.73956	7.61299	0.96026	9.89515	0.507557	5.21829	0.623632	6.44298	0.833843	8.60374		
0.400255	4.08631	0.198951	2.02168	0.544456	5.54772	0.649687	6.59978	0.742553	7.57118	0.962432	9.82322	0.511539	5.20934	0.626893	6.41492	0.836191	8.54581		
0.401935	4.0648	0.201039	2.02373	0.548856	5.53996	0.65337	6.57496	0.745563	7.53033	0.964619	9.75279	0.515506	5.20039	0.63017	6.38756	0.838553	8.48912		
0.403597	4.0435	0.203126	2.02574	0.553262	5.53241	0.657076	6.55084	0.748589	7.49042	0.966821	9.68383	0.519456	5.19145	0.633464	6.36087	0.84093	8.43364		
0.40524	4.02242	0.205214	2.02772	0.557673	5.52504	0.660806	6.52739	0.751632	7.4514	0.969037	9.61629	0.523389	5.1825	0.636774	6.33484	0.843322	8.37933		
0.406867	4.00156	0.207301	2.02965	0.562088	5.51785	0.664558	6.5046	0.754692	7.41326	0.971268	9.55014	0.527305	5.17355	0.640099	6.30945	0.845728	8.32616		
0.408477	3.98092	0.209387	2.03155	0.566507	5.51082	0.668332	6.48242	0.757768	7.37597	0.973514	9.48532	0.531204	5.16458	0.643442	6.28467	0.848148	8.27409		
0.410073	3.96051	0.211474	2.03341	0.570928	5.50394	0.672128	6.46085	0.760861	7.33952	0.975773	9.42181	0.535083	5.1556	0.6468	6.2605	0.850582	8.2231		
