Sym0		Sym1		Sym2		Sym3		Sym4		Sym5		Asym1		Asym2		Asym3		Asym4	
396  Points		395  Points		392  Points		365  Points		241  Points		132  Points		406  Points		378  Points		327  Points		257  Points	
Freq (MHz)	Vgr (m/ms)	Freq (MHz)	Vgr (m/ms)	Freq (MHz)	Vgr (m/ms)	Freq (MHz)	Vgr (m/ms)	Freq (MHz)	Vgr (m/ms)	Freq (MHz)	Vgr (m/ms)	Freq (MHz)	Vgr (m/ms)	Freq (MHz)	Vgr (m/ms)	Freq (MHz)	Vgr (m/ms)	Freq (MHz)	Vgr (m/ms)
1.40365	2.68142	1.40153	2.6869	0.433063	0.160837	0.866025	-0.00786741	1.09111	0.0407855	1.29904	-0.000582795	0.21653	0.111769	1.4013	2.59875	0.727411	0.0861144	1.08253	-0.00612266
1.39978	2.68599	1.39765	2.69051	0.433295	0.225248	0.866014	-0.0149811	1.09117	0.0557198	1.29904	-0.000776456	0.216692	0.164127	1.39755	2.60051	0.727536	0.129727	1.08252	-0.00861249
1.39589	2.69357	1.39376	2.69657	0.433713	0.352122	0.865982	-0.0291444	1.09127	0.0855813	1.29904	-0.00121096	0.217004	0.268393	1.3938	2.60402	0.727786	0.216252	1.08251	-0.0135918
1.392	2.69861	1.38986	2.7007	0.434312	0.474474	0.86593	-0.0432621	1.09142	0.115348	1.29903	-0.0016405	0.217466	0.371531	1.39004	2.60739	0.72816	0.301119	1.08248	-0.0185698
1.3881	2.7021	1.38596	2.70356	0.435083	0.591152	0.865857	-0.0572885	1.0916	0.145	1.29903	-0.00198689	0.218077	0.472996	1.38627	2.61053	0.728655	0.383695	1.08245	-0.0234722
1.3842	2.70454	1.38206	2.70552	0.436018	0.701313	0.865764	-0.0711323	1.09184	0.174493	1.29903	-0.00231347	0.218832	0.572435	1.3825	2.61351	0.729268	0.463446	1.08241	-0.0282966
1.38029	2.70619	1.37815	2.70689	0.437108	0.804302	0.865652	-0.0848306	1.09211	0.203743	1.29902	-0.00260042	0.219729	0.669508	1.37873	2.61632	0.729993	0.540038	1.08237	-0.0331114
1.37639	2.70737	1.37425	2.70786	0.43834	0.899903	0.86552	-0.0983113	1.09242	0.232725	1.29902	-0.0028081	0.220764	0.763822	1.37495	2.61902	0.730826	0.613169	1.08232	-0.0378336
1.37248	2.7082	1.37034	2.70849	0.439705	0.988128	0.865368	-0.111503	1.09278	0.261468	1.29902	-0.00293049	0.221934	0.855187	1.37117	2.62157	0.731763	0.682599	1.08226	-0.0424442
1.36857	2.70868	1.36643	2.70888	0.441193	1.06907	0.865198	-0.12441	1.09318	0.289875	1.29901	-0.00295554	0.223233	0.94336	1.36738	2.62394	0.732797	0.748218	1.0822	-0.0469778
1.36466	2.70898	1.36252	2.70907	0.442791	1.14313	0.865009	-0.137041	1.09362	0.317905	1.29901	-0.0029324	0.224657	1.02815	1.36359	2.62621	0.733923	0.809948	1.08212	-0.0513575
1.36075	2.70915	1.35861	2.70915	0.444492	1.2107	0.864802	-0.149338	1.0941	0.345621	1.299	-0.00281288	0.226201	1.10941	1.3598	2.62832	0.735135	0.867857	1.08205	-0.055576
1.35684	2.70912	1.3547	2.70909	0.446286	1.27221	0.864578	-0.161261	1.09461	0.372928	1.299	-0.00257383	0.22786	1.18703	1.356	2.63034	0.736428	0.922079	1.08196	-0.0596916
1.35293	2.70899	1.35079	2.70889	0.448165	1.32823	0.864337	-0.172802	1.09517	0.399784	1.299	-0.00216899	0.229628	1.26106	1.35221	2.63227	0.737797	0.97266	1.08188	-0.0636748
1.34902	2.7088	1.34688	2.70865	0.450121	1.37918	0.864079	-0.183874	1.09577	0.426175	1.29899	-0.00165228	0.2315	1.33139	1.34841	2.63407	0.739236	1.01977	1.08178	-0.0674664
1.34511	2.70849	1.34297	2.70831	0.452146	1.4255	0.863806	-0.194517	1.0964	0.452078	1.29899	-0.0010583	0.233471	1.39809	1.3446	2.63576	0.740741	1.0636	1.08168	-0.0710945
1.3412	2.70816	1.33906	2.70793	0.454236	1.46766	0.863517	-0.204672	1.09707	0.477517	1.29899	-0.00023655	0.235536	1.46125	1.3408	2.63731	0.742306	1.10431	1.08158	-0.0745421
1.33729	2.70773	1.33515	2.70747	0.456383	1.50606	0.863215	-0.214361	1.09778	0.502393	1.29899	0.000747764	0.23769	1.52084	1.33699	2.63874	0.743929	1.14215	1.08147	-0.0777752
1.33338	2.70723	1.33124	2.70697	0.458583	1.54105	0.862899	-0.223559	1.09852	0.52673	1.29899	0.00183748	0.239926	1.57697	1.33318	2.64013	0.745603	1.17726	1.08135	-0.080799
1.32948	2.70675	1.32734	2.70642	0.460832	1.57293	0.86257	-0.232141	1.0993	0.550503	1.299	0.00313802	0.242242	1.62982	1.32937	2.64144	0.747327	1.20982	1.08123	-0.083624
1.32557	2.70615	1.32343	2.70582	0.463124	1.60205	0.862229	-0.240221	1.10011	0.573658	1.299	0.00464046	0.24432	1.67324	1.32555	2.64259	0.749096	1.24002	1.08111	-0.0861978
1.32166	2.70554	1.31952	2.70522	0.465456	1.62865	0.861876	-0.24774	1.10096	0.596237	1.29901	0.00632698	0.246133	1.70844	1.32174	2.64366	0.750907	1.26796	1.08098	-0.0884889
1.31776	2.70491	1.31562	2.70453	0.467826	1.65292	0.861513	-0.254647	1.10183	0.618179	1.29902	0.00823517	0.247661	1.73627	1.31792	2.64462	0.752756	1.29389	1.08085	-0.0905809
1.31386	2.70422	1.31172	2.70381	0.470228	1.67509	0.861141	-0.260991	1.10274	0.639504	1.29903	0.010367	0.248886	1.75743	1.3141	2.64551	0.754642	1.31793	1.08072	-0.0924211
1.30995	2.70351	1.30781	2.7031	0.472661	1.69542	0.86076	-0.266721	1.10368	0.660181	1.29905	0.0127263	0.249795	1.77263	1.31029	2.64635	0.756561	1.34021	1.08059	-0.0939775
1.30605	2.70274	1.30391	2.70235	0.475122	1.71395	0.860371	-0.271809	1.10465	0.680221	1.29907	0.015321	0.250382	1.78213	1.30647	2.64707	0.758511	1.36083	1.08045	-0.0952592
1.30215	2.70194	1.30001	2.70149	0.477609	1.73087	0.859975	-0.276271	1.10564	0.699574	1.29909	0.0181665	0.25123	1.79537	1.30264	2.6477	0.760489	1.37988	1.08031	-0.0962113
1.29825	2.70115	1.29612	2.70066	0.480119	1.74633	0.859574	-0.280069	1.10667	0.718211	1.29912	0.0212941	0.252159	1.80947	1.29882	2.64822	0.762494	1.39755	1.08017	-0.0968704
1.29435	2.7003	1.29222	2.69981	0.48265	1.7604	0.859167	-0.28327	1.10772	0.73615	1.29916	0.0246928	0.253435	1.82819	1.295	2.64862	0.764524	1.4139	1.08003	-0.0972366
1.29046	2.6994	1.28832	2.6989	0.485201	1.77323	0.858756	-0.285791	1.10879	0.753424	1.29919	0.0283408	0.255066	1.85086	1.29118	2.64898	0.766576	1.42897	1.07989	-0.0973096
1.28656	2.69848	1.28443	2.69797	0.487769	1.78482	0.858342	-0.28761	1.10989	0.770027	1.29924	0.0323409	0.257065	1.87702	1.28735	2.64925	0.768649	1.44283	1.07975	-0.0970163
1.28267	2.69751	1.28053	2.69699	0.490353	1.79527	0.857926	-0.28883	1.11102	0.785876	1.29929	0.0366058	0.259444	1.90589	1.28353	2.64936	0.770741	1.45563	1.07961	-0.0963564
1.27877	2.69653	1.27664	2.69599	0.492951	1.80473	0.857508	-0.289367	1.11216	0.80102	1.29934	0.0411805	0.262218	1.93677	1.2797	2.64942	0.772851	1.46737	1.07947	-0.0954027
1.27488	2.69553	1.27275	2.69493	0.495563	1.81319	0.85709	-0.289195	1.11333	0.815415	1.29941	0.0460818	0.265035	1.96544	1.27588	2.64941	0.774977	1.47811	1.07934	-0.0940814
1.27099	2.69448	1.26886	2.69391	0.498186	1.82066	0.856673	-0.288339	1.11452	0.829117	1.29948	0.0513435	0.267892	1.99192	1.27206	2.64923	0.777118	1.48794	1.0792	-0.0923909
1.2671	2.69341	1.26497	2.69281	0.500819	1.82731	0.856258	-0.286847	1.11572	0.842093	1.29955	0.0569596	0.270786	2.01626	1.26823	2.64894	0.779272	1.49692	1.07907	-0.0903282
1.26322	2.69228	1.26109	2.69165	0.503461	1.83308	0.855845	-0.284667	1.11695	0.854275	1.29964	0.0629185	0.273713	2.03862	1.26441	2.6486	0.781439	1.50498	1.07894	-0.0878875
1.25933	2.69113	1.2572	2.6905	0.50611	1.83803	0.855436	-0.281774	1.11819	0.865749	1.29974	0.0692697	0.276671	2.05906	1.26059	2.64812	0.783616	1.51223	1.07882	-0.0850568
1.25545	2.68999	1.25332	2.6893	0.508767	1.84222	0.855032	-0.278184	1.11945	0.876465	1.29984	0.0759664	0.279657	2.07766	1.25676	2.64747	0.785804	1.51877	1.0787	-0.0818124
1.25157	2.68874	1.24944	2.68807	0.511428	1.8456	0.854633	-0.273935	1.12072	0.886471	1.29995	0.0830609	0.282668	2.09458	1.25294	2.64675	0.788001	1.52451	1.07858	-0.0781801
1.24769	2.68748	1.24556	2.68678	0.514094	1.84828	0.854241	-0.269024	1.122	0.895717	1.30008	0.0905848	0.285703	2.10975	1.24912	2.64588	0.790205	1.52955	1.07847	-0.074138
1.24381	2.68622	1.24168	2.68545	0.516764	1.85026	0.853856	-0.263379	1.1233	0.904175	1.30022	0.0985281	0.288759	2.12337	1.24531	2.64482	0.792416	1.53391	1.07837	-0.0696428
1.23993	2.68486	1.23781	2.6841	0.519436	1.85158	0.853481	-0.257067	1.12461	0.911934	1.30036	0.106871	0.291833	2.13549	1.24149	2.64364	0.794633	1.53758	1.07827	-0.064754
1.23606	2.68346	1.23394	2.68273	0.521765	1.85217	0.853114	-0.250085	1.12594	0.918958	1.30052	0.115646	0.294923	2.14613	1.23767	2.64232	0.796855	1.5406	1.07818	-0.0594441
1.23219	2.68206	1.23006	2.68129	0.523751	1.85231	0.852759	-0.242418	1.12727	0.925168	1.3007	0.124847	0.298028	2.15533	1.23386	2.64084	0.79908	1.54298	1.0781	-0.0536583
1.22832	2.68065	1.2262	2.67982	0.525394	1.85217	0.852415	-0.234043	1.12861	0.930629	1.30089	0.134534	0.301145	2.16315	1.23005	2.63913	0.801309	1.54473	1.07802	-0.0474334
1.22445	2.67915	1.22233	2.67833	0.526692	1.85181	0.852083	-0.224983	1.12995	0.935401	1.30109	0.144678	0.304273	2.16974	1.22624	2.63725	0.80354	1.5459	1.07796	-0.0407697
1.22058	2.6776	1.21846	2.67675	0.527646	1.85153	0.851765	-0.215285	1.13131	0.939377	1.3013	0.155298	0.307409	2.17505	1.22244	2.63517	0.805772	1.54647	1.07791	-0.0335946
1.21672	2.67605	1.2146	2.67513	0.528257	1.8513	0.851462	-0.204899	1.13267	0.942568	1.30153	0.166359	0.310551	2.17905	1.21864	2.63283	0.808004	1.54643	1.07786	-0.0259827
1.21286	2.67441	1.21074	2.67351	0.529135	1.85075	0.851174	-0.193795	1.13403	0.945069	1.30178	0.177932	0.313699	2.18194	1.21484	2.63029	0.810236	1.54586	1.07783	-0.0179367
1.209	2.67274	1.20688	2.67179	0.530089	1.85025	0.850902	-0.182061	1.13539	0.946849	1.30205	0.19002	0.31685	2.18367	1.21104	2.62747	0.812466	1.5447	1.07781	-0.0093887
1.20514	2.67101	1.20303	2.67005	0.531386	1.8495	0.850648	-0.169652	1.13676	0.947844	1.30233	0.202549	0.320003	2.18421	1.20725	2.62433	0.814695	1.54298	1.0778	-0.000349262
1.20129	2.66923	1.19918	2.66824	0.533025	1.84809	0.850412	-0.156553	1.13813	0.948077	1.30263	0.215597	0.323155	2.18371	1.20347	2.6209	0.816921	1.54078	1.07781	0.00923353
1.19744	2.66745	1.19533	2.66638	0.535006	1.84621	0.850196	-0.142807	1.1395	0.947591	1.30295	0.229168	0.326307	2.1821	1.19969	2.61719	0.819143	1.53799	1.07783	0.0192438
1.19359	2.66555	1.19148	2.6645	0.537327	1.84362	0.85	-0.128351	1.14087	0.946399	1.30329	0.243272	0.329455	2.17947	1.19591	2.61307	0.82136	1.53461	1.07787	0.029743
1.18974	2.6636	1.18763	2.66256	0.539985	1.84006	0.849826	-0.113281	1.14223	0.944454	1.30366	0.257857	0.332598	2.17581	1.19214	2.60855	0.823573	1.53078	1.07792	0.0407803
1.1859	2.6616	1.18379	2.66052	0.542638	1.83593	0.849673	-0.09757	1.14359	0.94181	1.30404	0.272965	0.335736	2.17112	1.18838	2.60363	0.825779	1.52641	1.07798	0.0523081
1.18206	2.65957	1.17995	2.65841	0.545285	1.83123	0.849544	-0.081163	1.14495	0.938499	1.30444	0.288606	0.338866	2.16545	1.18463	2.59818	0.827979	1.52149	1.07807	0.0643773
1.17822	2.65749	1.17612	2.65631	0.547925	1.82595	0.849439	-0.0640961	1.1463	0.934441	1.30487	0.304728	0.341987	2.1588	1.18088	2.59227	0.830172	1.51611	1.07817	0.0769436
1.17439	2.65531	1.17229	2.6541	0.550556	1.82009	0.849359	-0.0464418	1.14765	0.929694	1.30532	0.32137	0.345098	2.15119	1.17714	2.58578	0.832356	1.51019	1.07829	0.089991
1.17056	2.65307	1.16846	2.6518	0.553179	1.81368	0.849305	-0.0281255	1.14898	0.924301	1.3058	0.33854	0.348197	2.14263	1.17342	2.57867	0.834531	1.50377	1.07843	0.103562
1.16673	2.65079	1.16463	2.64948	0.555792	1.8067	0.849278	-0.0091441	1.15031	0.918202	1.3063	0.356183	0.351283	2.13318	1.1697	2.5709	0.836697	1.49685	1.07859	0.117666
1.1629	2.64842	1.16081	2.6471	0.558394	1.79915	0.849278	0.0104348	1.15164	0.911498	1.30683	0.374328	0.354355	2.12278	1.166	2.56238	0.838852	1.4894	1.07877	0.132324
1.15908	2.64596	1.15699	2.64461	0.560985	1.79105	0.849308	0.030623	1.15295	0.904169	1.30738	0.392968	0.357411	2.11147	1.1623	2.5531	0.840996	1.48152	1.07897	0.147431
1.15526	2.64346	1.15317	2.64205	0.563565	1.78242	0.849367	0.0514436	1.15425	0.896176	1.30796	0.412085	0.36045	2.09933	1.15863	2.5429	0.843129	1.47316	1.07919	0.163071
1.15145	2.64087	1.14936	2.63941	0.566131	1.77324	0.849456	0.0728701	1.15553	0.887661	1.30857	0.43164	0.363471	2.0863	1.15496	2.53173	0.845249	1.46428	1.07944	0.179263
1.14764	2.63819	1.14555	2.63671	0.568684	1.76352	0.849577	0.0948489	1.15681	0.87854	1.30921	0.451635	0.366473	2.07239	1.15132	2.51956	0.847356	1.45494	1.07971	0.195899
1.14384	2.63546	1.14175	2.63394	0.571222	1.75332	0.84973	0.11742	1.15807	0.868868	1.30988	0.472069	0.369453	2.05767	1.14769	2.50629	0.849449	1.44519	1.08001	0.213058
1.14003	2.63264	1.13795	2.63104	0.573745	1.74254	0.84989	0.137558	1.15932	0.85868	1.31057	0.492941	0.372412	2.04211	1.14408	2.49176	0.851261	1.43632	1.08033	0.230749
1.13624	2.62971	1.13416	2.62808	0.576252	1.73121	0.850047	0.155067	1.16055	0.847972	1.3113	0.514178	0.375348	2.02576	1.1405	2.47595	0.852797	1.42839	1.08067	0.248921
1.13244	2.6267	1.13036	2.62504	0.578742	1.7194	0.850191	0.169848	1.16176	0.836808	1.31206	0.535779	0.37826	2.00868	1.13693	2.45875	0.854061	1.42174	1.08105	0.26754
1.12865	2.62361	1.12658	2.62187	0.581216	1.70705	0.850314	0.181575	1.16296	0.825249	1.31284	0.557739	0.381147	1.99084	1.1334	2.44011	0.855056	1.41644	1.08145	0.286686
1.12487	2.62043	1.1228	2.61861	0.58367	1.69424	0.85041	0.190318	1.16415	0.813263	1.31367	0.57998	0.384007	1.97225	1.12989	2.4199	0.855785	1.41241	1.08187	0.306303
1.12109	2.61715	1.11902	2.61525	0.586106	1.68096	0.850474	0.195943	1.16531	0.800863	1.31452	0.602562	0.38684	1.953	1.12641	2.39808	0.85625	1.40976	1.08233	0.326346
1.11731	2.61373	1.11525	2.61182	0.588523	1.66717	0.850569	0.203976	1.16646	0.788147	1.31541	0.625388	0.389645	1.93312	1.12297	2.37465	0.856918	1.40595	1.08282	0.346877
1.11354	2.61021	1.11148	2.60825	0.590919	1.65292	0.850676	0.212945	1.16759	0.775168	1.31632	0.648408	0.392421	1.91259	1.11956	2.34955	0.857642	1.40179	1.08333	0.367797
1.10978	2.60659	1.10772	2.60457	0.593294	1.63821	0.85083	0.225247	1.1687	0.76188	1.31728	0.67167	0.395166	1.89146	1.11619	2.32279	0.858623	1.39602	1.08388	0.389129
1.10602	2.60287	1.10396	2.60078	0.595648	1.62306	0.851036	0.240882	1.16979	0.748341	1.31826	0.695123	0.397881	1.86979	1.11285	2.29438	0.859857	1.38863	1.08445	0.41092
1.10226	2.59903	1.10021	2.59687	0.59798	1.60746	0.851305	0.260081	1.17086	0.734667	1.31928	0.718664	0.400564	1.84764	1.10956	2.26452	0.861341	1.37945	1.08506	0.433042
1.09852	2.59508	1.09646	2.59286	0.600289	1.59146	0.851646	0.28288	1.17191	0.720796	1.32034	0.742309	0.403215	1.82503	1.10632	2.23329	0.863069	1.36838	1.0857	0.455533
1.09477	2.591	1.09272	2.58872	0.602574	1.57504	0.852074	0.309541	1.17294	0.706822	1.32143	0.766016	0.405832	1.80204	1.10311	2.20078	0.865035	1.35538	1.08638	0.478395
1.09104	2.58677	1.08899	2.5844	0.604835	1.55825	0.85254	0.336604	1.17395	0.692791	1.32255	0.789771	0.408417	1.77872	1.09996	2.16725	0.866982	1.34203	1.08709	0.50156
1.08731	2.58243	1.08526	2.57994	0.607072	1.54111	0.853045	0.364089	1.17494	0.678717	1.32371	0.81355	0.410967	1.75509	1.09686	2.13302	0.868909	1.32836	1.08783	0.52504
1.08358	2.57792	1.08154	2.5754	0.609284	1.52364	0.853591	0.392003	1.17591	0.664633	1.3249	0.837232	0.413483	1.73122	1.0938	2.09824	0.870817	1.31431	1.0886	0.548782
1.07986	2.5733	1.07783	2.57072	0.611471	1.50582	0.854177	0.420279	1.17686	0.6506	1.32612	0.860866	0.415965	1.7072	1.0908	2.06318	0.872703	1.29996	1.0893	0.569648
1.07615	2.56851	1.07412	2.56583	0.613631	1.48772	0.854804	0.448883	1.17778	0.63667	1.32738	0.884403	0.418412	1.68307	1.08785	2.02821	0.874569	1.28539	1.08993	0.587626
1.07245	2.56356	1.07042	2.56081	0.615765	1.46937	0.855473	0.477833	1.17869	0.622872	1.32868	0.907746	0.420823	1.65888	1.08495	1.99352	0.876414	1.27052	1.09045	0.602568
1.06875	2.5585	1.06673	2.55568	0.617873	1.45075	0.856183	0.507103	1.17958	0.609192	1.33	0.930921	0.4232	1.63471	1.08209	1.95935	0.878237	1.2554	1.09088	0.614372
1.06506	2.55327	1.06304	2.55032	0.619953	1.43191	0.856937	0.536606	1.18045	0.595675	1.33136	0.953908	0.425542	1.61064	1.07929	1.92595	0.880038	1.24011	1.0912	0.62318
1.06138	2.54787	1.05937	2.54481	0.622006	1.4129	0.857732	0.566336	1.1813	0.582412	1.33276	0.976663	0.42785	1.58671	1.07653	1.89342	0.881817	1.22463	1.0914	0.628804
1.05771	2.54227	1.0557	2.53913	0.624032	1.39373	0.858571	0.596252	1.18203	0.571096	1.33418	0.999103	0.430123	1.56299	1.07382	1.86199	0.883573	1.20898	1.0917	0.636838
1.05404	2.5365	1.05204	2.53326	0.62603	1.3744	0.859454	0.626371	1.18263	0.561601	1.33564	1.02128	0.432362	1.53959	1.07116	1.83172	0.885307	1.19317	1.09204	0.645679
1.05039	2.53058	1.04839	2.52724	0.627999	1.35496	0.86038	0.656628	1.18313	0.553791	1.33713	1.04314	0.434567	1.51654	1.06854	1.80267	0.887018	1.17728	1.09249	0.657667
1.04674	2.52447	1.04474	2.52106	0.629941	1.3355	0.861349	0.686955	1.18352	0.54781	1.33865	1.06461	0.43674	1.49384	1.06596	1.77489	0.888705	1.16135	1.09308	0.672859
1.0431	2.51817	1.04111	2.51462	0.631855	1.31599	0.862363	0.717316	1.1838	0.543458	1.3402	1.08571	0.43888	1.47162	1.06341	1.74834	0.89037	1.14537	1.09381	0.691342
1.03947	2.51166	1.03748	2.50798	0.63374	1.29646	0.86342	0.747767	1.18398	0.54066	1.34179	1.10645	0.440988	1.44996	1.06091	1.72306	0.892012	1.12939	1.0947	0.71304
1.03585	2.50494	1.03387	2.50121	0.635597	1.27698	0.864521	0.778191	1.18423	0.536682	1.3434	1.12676	0.443065	1.42888	1.05844	1.69903	0.89363	1.11342	1.09574	0.737976
1.03224	2.49809	1.03026	2.4942	0.637426	1.25754	0.865666	0.808527	1.18451	0.532427	1.34504	1.14659	0.445113	1.40841	1.056	1.6761	0.895226	1.09749	1.09683	0.762969
1.02864	2.49097	1.02667	2.48698	0.639227	1.23823	0.866855	0.838783	1.18488	0.526759	1.34671	1.16596	0.447131	1.38862	1.0536	1.65432	0.896799	1.08169	1.09795	0.787953
1.02505	2.48362	1.02308	2.47956	0.641001	1.21905	0.868088	0.868925	1.18534	0.519637	1.34841	1.18493	0.449121	1.36953	1.05123	1.63361	0.898348	1.06602	1.0991	0.81286
1.02147	2.4761	1.01951	2.47192	0.642747	1.20001	0.869364	0.898938	1.18589	0.511253	1.35013	1.20338	0.451084	1.3512	1.04888	1.6138	0.899876	1.0505	1.10029	0.837728
1.0179	2.46839	1.01595	2.46402	0.644465	1.18116	0.870683	0.928703	1.18653	0.501737	1.35165	1.21908	0.453022	1.33368	1.04657	1.59498	0.901381	1.03519	1.10152	0.862467
1.01434	2.46043	1.0124	2.45592	0.646156	1.16254	0.872045	0.958197	1.18725	0.491237	1.35297	1.23222	0.454934	1.31698	1.04428	1.57704	0.902864	1.02011	1.10278	0.887067
1.0108	2.45221	1.00886	2.44763	0.647821	1.14422	0.873449	0.987446	1.18795	0.48119	1.35406	1.24279	0.456824	1.30112	1.04202	1.55984	0.904326	1.00531	1.10408	0.911526
1.00726	2.44381	1.00533	2.43911	0.649459	1.12616	0.874895	1.01643	1.18864	0.471553	1.35494	1.25103	0.458691	1.28612	1.03978	1.54339	0.905766	0.990775	1.10541	0.935804
1.00374	2.43516	1.00182	2.43034	0.651072	1.10841	0.876383	1.04505	1.18931	0.462412	1.35558	1.25692	0.460536	1.27203	1.03756	1.52762	0.907186	0.976584	1.10678	0.959808
1.00023	2.42627	0.998316	2.42136	0.652659	1.09101	0.877912	1.07324	1.18997	0.453814	1.356	1.26071	0.462363	1.25887	1.03537	1.51248	0.908585	0.962787	1.10818	0.983528
0.996737	2.41722	0.994827	2.41213	0.654221	1.07399	0.879481	1.10104	1.19062	0.445779	1.3566	1.26618	0.46417	1.24658	1.0332	1.49797	0.909965	0.949334	1.10962	1.007
0.993255	2.40789	0.991352	2.40267	0.655759	1.05743	0.88109	1.12841	1.19126	0.43821	1.35725	1.27203	0.465961	1.23516	1.03104	1.48395	0.911326	0.936345	1.11109	1.03016
0.989786	2.39832	0.987891	2.39299	0.657274	1.04124	0.882739	1.15532	1.19189	0.431166	1.35815	1.27985	0.467736	1.22472	1.02891	1.47041	0.912668	0.923844	1.1126	1.05298
0.986332	2.38856	0.984444	2.38308	0.658765	1.02545	0.884425	1.1817	1.1925	0.424714	1.35929	1.28942	0.469497	1.21518	1.0268	1.45739	0.913993	0.911808	1.11413	1.07542
0.982891	2.37856	0.981012	2.37299	0.660234	1.01019	0.88615	1.20752	1.19311	0.418778	1.36068	1.30085	0.471244	1.20653	1.0247	1.44476	0.9153	0.90026	1.1157	1.09744
0.979465	2.3683	0.977594	2.36262	0.661681	0.995427	0.887911	1.23281	1.19371	0.41343	1.36232	1.31386	0.47298	1.19884	1.02263	1.43254	0.916592	0.889323	1.1173	1.11903
0.976054	2.35788	0.974192	2.35207	0.663108	0.981158	0.889709	1.2575	1.1943	0.408669	1.36423	1.32829	0.474705	1.19199	1.02057	1.42069	0.917868	0.87891	1.11893	1.14023
0.972659	2.34723	0.970804	2.34129	0.664514	0.967395	0.891541	1.28164	1.19489	0.40442	1.36615	1.34224	0.47642	1.18604	1.01853	1.40916	0.919129	0.869089	1.12059	1.16093
0.969279	2.33632	0.967433	2.33029	0.6659	0.954178	0.893408	1.30514	1.19547	0.400794	1.3681	1.35562	0.478128	1.18097	1.0165	1.39797	0.920377	0.859968	1.12228	1.18117
