Sym0		Sym1		Sym2		Sym3		Sym4		Asym1		Asym2		Asym3		Asym4	
395  Points		394  Points		374  Points		355  Points		227  Points		396  Points		379  Points		289  Points		231  Points	
Freq (MHz)	Vgr (m/ms)	Freq (MHz)	Vgr (m/ms)	Freq (MHz)	Vgr (m/ms)	Freq (MHz)	Vgr (m/ms)	Freq (MHz)	Vgr (m/ms)	Freq (MHz)	Vgr (m/ms)	Freq (MHz)	Vgr (m/ms)	Freq (MHz)	Vgr (m/ms)	Freq (MHz)	Vgr (m/ms)
1.40293	2.66736	1.40023	2.66658	0.433013	0.183761	0.866024	-0.0029852	1.23198	0.0122493	0.216532	0.114357	1.40175	2.63936	0.821318	0.0261335	1.08253	0.00215903
1.39908	2.66679	1.39638	2.66598	0.433278	0.346874	0.86602	-0.00422696	1.232	0.0171099	0.216697	0.167395	1.39794	2.63878	0.821355	0.0462392	1.08254	0.00330238
1.39523	2.66564	1.39253	2.66481	0.434014	0.648199	0.866012	-0.00663385	1.23203	0.0268577	0.217015	0.272969	1.39413	2.63756	0.821451	0.0863412	1.08254	0.00556053
1.39138	2.66445	1.38869	2.66358	0.435149	0.895331	0.866001	-0.00895741	1.23207	0.0366122	0.217485	0.377329	1.39033	2.6363	0.821605	0.126262	1.08255	0.00780633
1.38754	2.66318	1.38485	2.6623	0.436599	1.0871	0.865986	-0.0112608	1.23213	0.0462334	0.218104	0.480069	1.38652	2.63494	0.821816	0.166041	1.08256	0.0101007
1.3837	2.66194	1.381	2.66105	0.438288	1.23232	0.865968	-0.0135237	1.23221	0.0557346	0.218871	0.580738	1.38272	2.63339	0.822084	0.205534	1.08258	0.0124188
1.37985	2.66064	1.37716	2.65971	0.440156	1.34214	0.865947	-0.0157059	1.2323	0.0651424	0.219781	0.679025	1.37892	2.6317	0.822409	0.244677	1.0826	0.0147846
1.37601	2.65928	1.37333	2.65837	0.442162	1.42621	0.865923	-0.0177998	1.2324	0.0743632	0.220831	0.774599	1.37512	2.62984	0.82279	0.283411	1.08262	0.0171725
1.37218	2.65796	1.36949	2.65699	0.444273	1.49182	0.865896	-0.0198636	1.23251	0.0834298	0.222017	0.867161	1.37133	2.62781	0.823227	0.321696	1.08265	0.0196044
1.36834	2.65656	1.36566	2.65556	0.446469	1.54414	0.865866	-0.0217938	1.23264	0.0923346	0.223334	0.95656	1.36754	2.62566	0.823719	0.359521	1.08268	0.0221246
1.36451	2.65516	1.36182	2.65409	0.448731	1.58682	0.865833	-0.0236035	1.23278	0.100989	0.224778	1.04256	1.36375	2.62326	0.824265	0.396718	1.08271	0.0246748
1.36068	2.65367	1.35799	2.65261	0.451049	1.62237	0.865798	-0.0253186	1.23293	0.109435	0.226344	1.12505	1.35997	2.62065	0.824864	0.433319	1.08275	0.0272848
1.35685	2.65215	1.35417	2.65112	0.453414	1.65254	0.86576	-0.0269178	1.23309	0.117611	0.228026	1.20398	1.35619	2.61785	0.825516	0.469315	1.08279	0.0300147
1.35302	2.65065	1.35034	2.64952	0.45582	1.67859	0.86572	-0.0283583	1.23327	0.125541	0.229819	1.27922	1.35241	2.61475	0.826219	0.504612	1.08284	0.0328376
1.3492	2.64905	1.34652	2.64794	0.45826	1.7014	0.865678	-0.0296279	1.23345	0.133197	0.231719	1.35082	1.34864	2.61141	0.826973	0.539172	1.08289	0.0357003
1.34537	2.64745	1.3427	2.64631	0.460731	1.72161	0.865634	-0.0307756	1.23365	0.140525	0.233719	1.41888	1.34487	2.6078	0.827775	0.572988	1.08294	0.0386426
1.34155	2.64579	1.33888	2.64461	0.46323	1.73969	0.865589	-0.0317527	1.23386	0.147565	0.235814	1.48336	1.34111	2.60387	0.828627	0.605976	1.083	0.0417439
1.33774	2.64409	1.33506	2.64287	0.465753	1.75608	0.865543	-0.032535	1.23408	0.154248	0.237715	1.53678	1.33735	2.59961	0.829525	0.638188	1.08306	0.0449436
1.33392	2.64237	1.33125	2.64109	0.468299	1.77097	0.865495	-0.0331473	1.23431	0.160582	0.239386	1.58027	1.3336	2.59496	0.830469	0.66958	1.08313	0.0482668
1.33011	2.64055	1.32744	2.63928	0.470866	1.78458	0.865447	-0.0335664	1.23454	0.166586	0.240803	1.61474	1.32986	2.58992	0.831458	0.700064	1.0832	0.0516905
1.3263	2.63873	1.32363	2.63741	0.473451	1.79715	0.865398	-0.0337454	1.23479	0.172221	0.241944	1.64116	1.32613	2.58445	0.83249	0.729757	1.08328	0.055242
1.32249	2.63685	1.31982	2.63552	0.476054	1.80875	0.86535	-0.0337372	1.23504	0.177485	0.242795	1.66024	1.3224	2.57849	0.833564	0.758529	1.08336	0.0589759
1.31869	2.63493	1.31602	2.63356	0.478672	1.81948	0.865301	-0.033501	1.2353	0.182373	0.243345	1.67215	1.31868	2.57205	0.834679	0.786409	1.08345	0.0627816
1.31488	2.63298	1.31222	2.63155	0.481306	1.82944	0.865253	-0.0330287	1.23557	0.186877	0.244142	1.68884	1.31498	2.56505	0.835834	0.813458	1.08354	0.066804
1.31109	2.63092	1.30843	2.6295	0.483953	1.83867	0.865206	-0.0323037	1.23584	0.190976	0.245017	1.70663	1.31128	2.5574	0.837028	0.839578	1.08364	0.0709672
1.30729	2.62884	1.30463	2.62738	0.486614	1.84724	0.86516	-0.0312931	1.23612	0.194634	0.246222	1.73024	1.30759	2.54915	0.838258	0.864791	1.08375	0.0752651
1.3035	2.62675	1.30084	2.6252	0.489286	1.85524	0.865115	-0.0300777	1.2364	0.197921	0.247769	1.75909	1.30392	2.54018	0.839524	0.889143	1.08386	0.0797594
1.29971	2.62453	1.29705	2.62296	0.491969	1.86265	0.865073	-0.028599	1.23669	0.200834	0.249674	1.7925	1.30026	2.53046	0.840825	0.912579	1.08398	0.0844268
1.29592	2.62229	1.29327	2.62067	0.494663	1.8695	0.865033	-0.0268134	1.23698	0.203364	0.251952	1.82972	1.29662	2.51994	0.842159	0.935134	1.0841	0.0892937
1.29214	2.62001	1.28949	2.61836	0.497366	1.87588	0.864995	-0.0247804	1.23728	0.205493	0.254623	1.8699	1.29299	2.50849	0.843524	0.956807	1.08423	0.0943401
1.28836	2.61765	1.28571	2.61595	0.500078	1.88175	0.864961	-0.022399	1.23757	0.207189	0.25735	1.90757	1.28938	2.49616	0.844921	0.977594	1.08437	0.099599
1.28458	2.61521	1.28194	2.61346	0.502798	1.88711	0.864931	-0.0197602	1.23787	0.208529	0.26013	1.94274	1.28578	2.48283	0.846346	0.997562	1.08452	0.105063
1.28081	2.61273	1.27817	2.61098	0.505526	1.89205	0.864904	-0.0168264	1.23818	0.209525	0.262959	1.97552	1.28221	2.46842	0.8478	1.01662	1.08468	0.110717
1.27704	2.61019	1.2744	2.60836	0.50826	1.89652	0.864882	-0.0135222	1.23848	0.210125	0.265833	2.00608	1.27866	2.45299	0.849281	1.03482	1.08484	0.116606
1.27327	2.60753	1.27064	2.60567	0.511001	1.90054	0.864865	-0.00991676	1.23878	0.210372	0.26875	2.03451	1.27513	2.43641	0.850788	1.05225	1.08501	0.122744
1.26951	2.60485	1.26688	2.60295	0.513747	1.90419	0.864854	-0.00600174	1.23909	0.210282	0.271706	2.06092	1.27162	2.41865	0.852319	1.06881	1.0852	0.129087
1.26575	2.60212	1.26312	2.60013	0.516497	1.90739	0.864848	-0.00176056	1.23939	0.209882	0.274699	2.08544	1.26814	2.39974	0.853873	1.08455	1.08539	0.135695
1.262	2.59931	1.25937	2.59728	0.519253	1.91019	0.864848	0.00283996	1.23969	0.209155	0.277726	2.1081	1.2647	2.37965	0.85545	1.09949	1.08559	0.142539
1.25825	2.59639	1.25562	2.59429	0.522012	1.91258	0.864856	0.00779295	1.23999	0.208141	0.280785	2.12903	1.26128	2.35843	0.857047	1.11362	1.0858	0.149633
1.2545	2.5934	1.25188	2.59124	0.524419	1.91432	0.864871	0.0130847	1.24029	0.206845	0.283872	2.14831	1.25789	2.33614	0.858664	1.12701	1.08602	0.157012
1.25076	2.59035	1.24814	2.58815	0.526472	1.91557	0.864894	0.0187609	1.24059	0.205279	0.286986	2.16605	1.25453	2.31279	0.8603	1.13958	1.08625	0.164664
1.24703	2.58719	1.24441	2.58496	0.528171	1.91646	0.864925	0.0247666	1.24089	0.203464	0.290125	2.18232	1.25121	2.28852	0.861954	1.15139	1.08649	0.17257
1.24329	2.58394	1.24068	2.58167	0.529515	1.91703	0.864965	0.0311385	1.24118	0.201446	0.293286	2.19711	1.24793	2.26341	0.863624	1.16248	1.08675	0.180766
1.23957	2.58067	1.23696	2.5783	0.530503	1.91743	0.865015	0.0379496	1.24147	0.199242	0.296467	2.21059	1.24468	2.23766	0.86531	1.1728	1.08702	0.189248
1.23584	2.57727	1.23324	2.57486	0.531135	1.91774	0.865075	0.0451264	1.24175	0.19681	0.299667	2.22279	1.24147	2.21142	0.86701	1.18238	1.0873	0.198008
1.23213	2.57377	1.22953	2.57127	0.532045	1.918	0.865145	0.0526686	1.24203	0.194217	0.302884	2.23368	1.23829	2.18479	0.868723	1.19129	1.08759	0.207105
1.22841	2.57021	1.22582	2.56761	0.533034	1.91812	0.865227	0.0605752	1.24231	0.191522	0.306116	2.24345	1.23516	2.15797	0.870449	1.19944	1.08789	0.216511
1.22471	2.56653	1.22211	2.56388	0.534379	1.91838	0.86532	0.0689176	1.24259	0.188694	0.30936	2.25207	1.23206	2.13122	0.872185	1.20687	1.08821	0.226241
1.22101	2.56276	1.21842	2.56008	0.53608	1.91857	0.865426	0.0776924	1.24286	0.185749	0.312617	2.25957	1.22901	2.10467	0.873933	1.21368	1.08855	0.236252
1.21731	2.55888	1.21472	2.55614	0.538137	1.91859	0.865544	0.0868192	1.24312	0.182715	0.315883	2.26606	1.22599	2.07837	0.875689	1.21976	1.0889	0.246607
1.21362	2.55494	1.21104	2.55208	0.54055	1.91835	0.865676	0.0963569	1.24339	0.179577	0.319158	2.27154	1.22301	2.05257	0.877454	1.22518	1.08926	0.257282
1.20993	2.55085	1.20736	2.5479	0.543319	1.91768	0.865823	0.10635	1.24364	0.17645	0.322441	2.27604	1.22006	2.02743	0.879226	1.22994	1.08964	0.268305
1.20626	2.54664	1.20368	2.54365	0.546086	1.91669	0.865983	0.116742	1.24389	0.173273	0.325729	2.27954	1.21715	2.00293	0.881004	1.23405	1.09003	0.279658
1.20258	2.54239	1.20001	2.53933	0.548852	1.91528	0.86616	0.127565	1.24414	0.170068	0.329021	2.28216	1.21428	1.97919	0.882788	1.2375	1.09045	0.291377
1.19892	2.538	1.19635	2.53485	0.551615	1.91348	0.866352	0.13881	1.24439	0.16688	0.332317	2.28392	1.21144	1.95632	0.884577	1.24029	1.09087	0.303463
1.19526	2.53346	1.1927	2.53023	0.554375	1.91129	0.86656	0.150462	1.24462	0.163726	0.335614	2.28472	1.20863	1.93431	0.886369	1.24251	1.09132	0.315844
1.1916	2.52885	1.18905	2.52552	0.557132	1.90874	0.866786	0.162558	1.24486	0.160569	0.338912	2.28475	1.20586	1.91314	0.888163	1.2441	1.09179	0.328592
1.18796	2.5241	1.1854	2.52071	0.559885	1.90581	0.86703	0.175104	1.24509	0.157477	0.34221	2.28393	1.20311	1.89286	0.88996	1.24507	1.09227	0.341711
1.18432	2.51921	1.18177	2.51578	0.562634	1.90248	0.867292	0.188039	1.24531	0.154443	0.345505	2.28231	1.20039	1.87345	0.891758	1.2454	1.09277	0.355205
1.18068	2.51427	1.17814	2.51069	0.565377	1.89876	0.867572	0.201457	1.24553	0.15145	0.348798	2.27992	1.1977	1.85485	0.893555	1.24518	1.09329	0.369083
1.17706	2.50915	1.17452	2.50548	0.568115	1.89467	0.867873	0.215331	1.24575	0.148614	0.352087	2.27668	1.19504	1.83707	0.895352	1.24438	1.09384	0.38329
1.17344	2.50389	1.17091	2.50018	0.570847	1.89017	0.868152	0.227703	1.24596	0.145799	0.35537	2.27275	1.1924	1.8201	0.897147	1.243	1.0944	0.397859
1.16983	2.49856	1.1673	2.49473	0.573572	1.88528	0.868401	0.238479	1.24617	0.143099	0.358648	2.26808	1.18978	1.80381	0.89894	1.24105	1.09499	0.412789
1.16623	2.4931	1.16371	2.48916	0.576289	1.88006	0.868617	0.247667	1.24638	0.140554	0.361918	2.26259	1.18719	1.78822	0.90073	1.23854	1.09559	0.428074
1.16263	2.48746	1.16012	2.48344	0.578999	1.87437	0.868793	0.255018	1.24658	0.138101	0.365179	2.25644	1.18462	1.77331	0.902286	1.23595	1.09622	0.443775
1.15905	2.48167	1.15654	2.47757	0.5817	1.8683	0.868926	0.260612	1.24677	0.135759	0.368431	2.24959	1.18207	1.75901	0.90361	1.23342	1.09687	0.459798
1.15547	2.47582	1.15297	2.47162	0.584392	1.8619	0.869013	0.264185	1.24697	0.133565	0.371673	2.242	1.17954	1.74528	0.904703	1.23112	1.09755	0.476168
1.1519	2.46981	1.1494	2.46551	0.587075	1.85507	0.869139	0.269157	1.24716	0.131521	0.374904	2.23373	1.17703	1.73203	0.905565	1.22921	1.09825	0.492869
1.14834	2.46366	1.14585	2.45922	0.589747	1.84785	0.869279	0.274742	1.24735	0.129629	0.378121	2.22476	1.17454	1.71931	0.906199	1.22761	1.09897	0.509938
1.14479	2.45737	1.1423	2.45286	0.592409	1.84028	0.869474	0.282488	1.24753	0.127898	0.381326	2.21515	1.17207	1.70704	0.906603	1.22655	1.09972	0.527377
1.14125	2.45093	1.13877	2.44636	0.59506	1.83229	0.869729	0.292437	1.24772	0.126265	0.384516	2.20489	1.16962	1.69517	0.907185	1.22508	1.10049	0.545117
1.13771	2.44436	1.13524	2.43968	0.597698	1.8239	0.870049	0.304717	1.2479	0.124831	0.387691	2.1939	1.16718	1.68374	0.907816	1.22339	1.10129	0.563164
1.13419	2.43765	1.13173	2.43289	0.600325	1.81516	0.870442	0.319345	1.24808	0.123575	0.390849	2.18233	1.16476	1.67267	0.908673	1.22098	1.10212	0.581533
1.13068	2.43084	1.12822	2.42598	0.602938	1.80603	0.870915	0.336548	1.24826	0.122453	0.393991	2.17013	1.16235	1.66189	0.909754	1.21775	1.10297	0.600254
1.12717	2.42387	1.12472	2.41891	0.605538	1.79652	0.871413	0.354195	1.24843	0.121529	0.397114	2.15729	1.15996	1.65146	0.911057	1.2136	1.10385	0.61924
1.12368	2.41675	1.12124	2.41172	0.608124	1.7866	0.871937	0.372247	1.24861	0.12078	0.400218	2.14388	1.15758	1.6413	0.912581	1.20841	1.10476	0.638461
1.1202	2.40954	1.11776	2.40437	0.610696	1.77634	0.872488	0.390722	1.24878	0.120159	0.403303	2.12985	1.15522	1.63144	0.914321	1.20204	1.10557	0.65547
1.11672	2.40215	1.1143	2.39692	0.613252	1.76574	0.873065	0.409627	1.24895	0.119724	0.406367	2.11525	1.15287	1.62182	0.916051	1.19522	1.10629	0.670102
1.11326	2.39463	1.11084	2.38934	0.615793	1.75474	0.87367	0.428894	1.24913	0.119513	0.409409	2.10008	1.15054	1.61241	0.917771	1.18804	1.10688	0.68231
1.10981	2.38705	1.1074	2.38158	0.618318	1.74337	0.874303	0.448561	1.2493	0.119456	0.412429	2.0844	1.14822	1.60326	0.91948	1.18039	1.10737	0.691938
1.10637	2.37929	1.10397	2.37376	0.620826	1.73172	0.874965	0.468686	1.24947	0.119563	0.415426	2.06821	1.14591	1.59426	0.921178	1.17235	1.10772	0.699262
1.10294	2.37138	1.10055	2.3658	0.623317	1.71967	0.875656	0.489148	1.24964	0.11985	0.418399	2.05148	1.14362	1.58549	0.922865	1.16397	1.10796	0.703895
1.09952	2.36341	1.09714	2.35772	0.62579	1.70727	0.876377	0.51	1.24982	0.12035	0.421348	2.03432	1.14133	1.57695	0.924538	1.15521	1.10829	0.710437
1.09612	2.35529	1.09374	2.34954	0.628245	1.69459	0.877129	0.531192	1.24999	0.120984	0.424272	2.0167	1.13906	1.56851	0.926199	1.14614	1.10866	0.71775
1.09273	2.34706	1.09035	2.34124	0.630682	1.68159	0.877911	0.552701	1.25014	0.121698	0.42717	1.99865	1.13681	1.56021	0.927847	1.13673	1.10917	0.727613
1.08934	2.33871	1.08698	2.33284	0.6331	1.66827	0.878724	0.574625	1.25027	0.122412	0.430042	1.98022	1.13456	1.55211	0.929481	1.12705	1.10982	0.740193
1.08597	2.33028	1.08362	2.32432	0.635498	1.65462	0.87957	0.59683	1.25038	0.123006	0.432886	1.96141	1.13232	1.54417	0.931101	1.11712	1.11062	0.755553
1.08262	2.32179	1.08027	2.3157	0.637876	1.64073	0.880447	0.619322	1.25047	0.123627	0.435704	1.9423	1.1301	1.53635	0.932706	1.10691	1.11158	0.77367
1.07927	2.31314	1.07694	2.30704	0.640234	1.6266	0.881357	0.642176	1.25053	0.12408	0.438493	1.9229	1.12789	1.52863	0.934296	1.09646	1.11271	0.794545
1.07594	2.30443	1.07361	2.29829	0.642572	1.61214	0.882301	0.665249	1.25057	0.124414	0.441255	1.90323	1.12569	1.52102	0.935871	1.08586	1.11387	0.815567
1.07262	2.29563	1.0703	2.28942	0.644888	1.59748	0.883278	0.688577	1.25063	0.124918	0.443987	1.88337	1.1235	1.51357	0.937431	1.0751	1.11507	0.836734
1.06931	2.28677	1.067	2.28054	0.647183	1.5826	0.884289	0.71218	1.2507	0.125397	0.446691	1.86333	1.12132	1.50629	0.938974	1.06415	1.11629	0.857938
1.06602	2.27782	1.06372	2.27157	0.649457	1.56751	0.885334	0.735993	1.25079	0.126123	0.449366	1.84312	1.11915	1.49905	0.940502	1.05307	1.11754	0.879233
1.06274	2.26887	1.06045	2.2625	0.651708	1.55224	0.886413	0.759985	1.2509	0.127095	0.452012	1.82284	1.11699	1.49189	0.942014	1.04193	1.11883	0.900611
1.05947	2.25982	1.05719	2.25345	0.653938	1.53677	0.887528	0.784175	1.25103	0.128408	0.454629	1.80252	1.11484	1.4849	0.94351	1.03076	1.12014	0.921957
1.05621	2.25073	1.05394	2.24434	0.656145	1.52119	0.888677	0.808539	1.2512	0.130064	0.457216	1.78218	1.11271	1.47802	0.94499	1.0195	1.12149	0.943323
1.05297	2.24164	1.05071	2.23521	0.658329	1.50542	0.889862	0.832988	1.25139	0.132112	0.459773	1.7619	1.11058	1.47122	0.946453	1.00822	1.12287	0.964663
1.04974	2.23247	1.04749	2.22604	0.66049	1.48955	0.891082	0.857591	1.25158	0.134344	0.462302	1.74169	1.10846	1.46449	0.9479	0.996986	1.12427	0.985953
1.04653	2.22327	1.04428	2.21685	0.662629	1.47364	0.892337	0.88227	1.25177	0.136778	0.464801	1.72163	1.10635	1.45786	0.949331	0.985764	1.12571	1.00718
1.04332	2.21411	1.04109	2.20769	0.664744	1.45758	0.893629	0.907025	1.25197	0.139351	0.467272	1.70174	1.10425	1.45134	0.950746	0.974623	1.12718	1.02831
1.04014	2.20495	1.03791	2.19853	0.666837	1.44154	0.894956	0.931816	1.25218	0.142138	0.469714	1.68206	1.10216	1.44496	0.952145	0.963596	1.12868	1.0493
1.03696	2.19577	1.03474	2.18938	0.668906	1.42546	0.896318	0.956553	1.25238	0.145143	0.472127	1.66266	1.10008	1.43864	0.953528	0.952663	1.13021	1.07017
1.0338	2.18665	1.03159	2.18021	0.670952	1.40936	0.897717	0.981337	1.2526	0.148257	0.474513	1.64355	1.09801	1.43237	0.954895	0.941886	1.13177	1.09089
1.03065	2.1775	1.02845	2.17112	0.672974	1.39329	0.899151	1.00611	1.25281	0.151572	0.476872	1.6248	1.09594	1.42628	0.956247	0.931297	1.13336	1.1114
1.02751	2.16841	1.02532	2.16208	0.674974	1.37724	0.900621	1.03076	1.25303	0.155134	0.479204	1.60646	1.09389	1.42025	0.957583	0.920839	1.13498	1.13168
1.02439	2.1594	1.02221	2.15309	0.67695	1.3613	0.902127	1.05532	1.25326	0.158819	0.481509	1.58853	1.09184	1.41427	0.958905	0.910667	1.13663	1.15175
1.02128	2.15037	1.01911	2.14413	0.678903	1.34542	0.903668	1.07979	1.25349	0.162676	0.483789	1.57103	1.08981	1.40846	0.960212	0.900746	1.1383	1.1716
1.01818	2.14148	1.01602	2.13527	0.680834	1.32965	0.905244	1.10411	1.25373	0.166728	0.486044	1.55408	1.08778	1.40271	0.961505	0.891025	1.14001	1.19119
1.0151	2.13264	1.01294	2.1265	0.682742	1.31403	0.906855	1.12825	1.25397	0.170951	0.488276	1.53766	1.08576	1.39706	0.962784	0.881624	1.14174	1.21047
1.01202	2.12389	1.00988	2.11782	0.684627	1.29853	0.908501	1.15218	1.25422	0.175407	0.490483	1.52172	1.08375	1.39156	0.96405	0.872529	1.1435	1.22945
1.00896	2.11524	1.00683	2.10924	0.68649	1.28328	0.910181	1.1759	1.25448	0.180052	0.492668	1.50643	1.08174	1.38611	0.965303	0.863769	1.14529	1.24813
1.00592	2.10667	1.00379	2.10074	0.688332	1.26818	0.911895	1.19941	1.25474	0.184828	0.494832	1.49175	1.07974	1.38078	0.966544	0.855362	1.14711	1.26648
1.00288	2.09825	1.00076	2.09244	0.690151	1.2533	0.913644	1.22263	1.25501	0.189816	0.496975	1.47767	1.07775	1.37554	0.967772	0.847312	1.14895	1.28444
0.99986	2.08996	0.997749	2.08426	0.69195	1.23869	0.915425	1.24551	1.25529	0.194983	0.499098	1.46426	1.07577	1.37042	0.96899	0.839626	1.15081	1.30207
0.996849	2.08182	0.994746	2.07619	0.693727	1.22431	0.917239	1.26813	1.25558	0.200313	0.501202	1.45148	1.0738	1.36544	0.970196	0.832303	1.15271	1.31934
0.99385	2.07381	0.991755	2.06832	0.695484	1.21024	0.919086	1.29042	1.25587	0.205872	0.503288	1.43937	1.07183	1.36053	0.971392	0.825456	1.15462	1.33622
0.990863	2.066	0.988776	2.06063	0.697221	1.19647	0.920964	1.3123	1.25617	0.211617	0.505357	1.42798	1.06987	1.35577	0.972579	0.81903	1.15656	1.35271
0.987886	2.05836	0.985807	2.05309	0.698938	1.18299	0.922874	1.33382	1.25648	0.217529	0.50741	1.41722	1.06792	1.35115	0.973757	0.812997	1.15853	1.36876
0.984921	2.05091	0.982849	2.04578	0.700636	1.16984	0.924815	1.35501	1.2568	0.223635	0.509448	1.40719	1.06597	1.34661	0.974926	0.807453	1.16051	1.3844
0.981966	2.04362	0.979901	2.0387	0.702315	1.15708	0.926785	1.37572	1.25713	0.229947	0.511472	1.3979	1.06403	1.34221	0.976088	0.802338	1.16252	1.39965
0.979021	2.0366	0.976964	2.0318	0.703976	1.14465	0.928786	1.396	1.25746	0.236472	0.513483	1.38922	1.0621	1.33794	0.977242	0.797729	1.16456	1.41446
0.976087	2.02981	0.974036	2.02517	0.705619	1.13258	0.930815	1.41588	1.25781	0.24314	0.515483	1.38129	1.06017	1.33382	0.97839	0.793594	1.16661	1.42886
0.973162	2.02325	0.971118	2.0188	0.707245	1.12087	0.932873	1.43527	1.25816	0.250027	0.517471	1.37407	1.05825	1.32988	0.979533	0.789915	1.16868	1.44279
0.970246	2.01695	0.968208	2.01271	0.708855	1.10959	0.934959	1.45415	1.25853	0.257132	0.519449	1.36745	1.05633	1.32604	0.980671	0.786794	1.17077	1.45628
0.967339	2.01095	0.965307	2.00692	0.710448	1.09872	0.937071	1.47257	1.25891	0.264383	0.521418	1.36158	1.05442	1.3223	0.981804	0.784134	1.17288	1.46936
0.964441	2.00524	0.962415	2.00141	0.712027	1.08826	0.93921	1.49053	1.25929	0.271854	0.52338	1.35638	1.05251	1.31879	0.982934	0.781999	1.17501	1.48194
0.961551	1.99983	0.95953	1.99625	0.71359	1.07824	0.941374	1.50793	1.25969	0.279508	0.525334	1.3518	1.05061	1.31543	0.984062	0.780419	1.17716	1.49409
0.958668	1.99478	0.956652	1.99143	0.715139	1.06861	0.943563	1.52484	1.2601	0.2874	0.527282	1.34793	1.04871	1.31223	0.985187	0.779336	1.17933	1.50581
0.955792	1.99005	0.953781	1.98697	0.716675	1.05941	0.945776	1.54123	1.26052	0.295484	0.529225	1.34464	1.04682	1.30919	0.986312	0.778758	1.18151	1.51705
0.952923	1.9857	0.950916	1.98291	0.718197	1.05066	0.948012	1.55705	1.26095	0.303774	0.531164	1.34197	1.04493	1.30634	0.987435	0.778761	1.18371	1.52783
