Sym0		Sym1		Sym2		Sym3		Sym4		Sym5		Asym1		Asym2		Asym3		Asym4	
403  Points		403  Points		395  Points		364  Points		250  Points		146  Points		409  Points		380  Points		352  Points		264  Points	
Freq (MHz)	Vph (m/ms)	Freq (MHz)	Vph (m/ms)	Freq (MHz)	Vph (m/ms)	Freq (MHz)	Vph (m/ms)	Freq (MHz)	Vph (m/ms)	Freq (MHz)	Vph (m/ms)	Freq (MHz)	Vph (m/ms)	Freq (MHz)	Vph (m/ms)	Freq (MHz)	Vph (m/ms)	Freq (MHz)	Vph (m/ms)
1.40113	2.44328	1.40139	2.44317	0.433033	587.386	0.866025	3675.85	1.02492	790.39	1.29904	1154.21	0.216513	503.115	1.40272	2.59702	0.683272	2011.33	1.08253	8444.14
1.39832	2.44453	1.39858	2.44442	0.433187	198.655	0.865999	515.791	1.02501	374.077	1.29903	505.684	0.216633	115.617	1.39932	2.59768	0.683482	383.314	1.08252	688.814
1.39552	2.44581	1.39578	2.44569	0.433492	119.618	0.865936	277.335	1.02516	245.049	1.29901	323.763	0.216904	65.3898	1.39591	2.5983	0.683968	211.987	1.0825	359.043
1.39273	2.4471	1.39298	2.44698	0.433947	85.6359	0.865833	189.638	1.02537	182.228	1.29899	238.101	0.217324	45.6518	1.39246	2.59887	0.684711	146.624	1.08246	242.794
1.38994	2.44842	1.3902	2.4483	0.434546	66.7431	0.865694	144.064	1.02565	145.065	1.29895	188.282	0.217891	35.1219	1.389	2.59941	0.685683	112.164	1.0824	183.404
1.38717	2.44976	1.38742	2.44964	0.435286	54.7247	0.865516	116.138	1.02598	120.511	1.29891	155.701	0.218602	28.5859	1.38551	2.59991	0.686856	90.8949	1.08233	147.354
1.3844	2.45112	1.38465	2.451	0.436161	46.4126	0.865302	97.2703	1.02638	103.081	1.29887	132.731	0.219456	24.141	1.38201	2.60037	0.688199	76.4669	1.08224	123.143
1.38164	2.4525	1.38189	2.45238	0.437166	40.3258	0.865052	83.667	1.02683	90.0701	1.29882	115.665	0.220447	20.9272	1.37848	2.6008	0.689688	66.0409	1.08213	105.761
1.37889	2.45391	1.37914	2.45378	0.438293	35.6794	0.864767	73.3936	1.02735	79.988	1.29876	102.486	0.221572	18.4993	1.37494	2.6012	0.691298	58.1572	1.08201	92.6762
1.37615	2.45534	1.3764	2.45521	0.439537	32.0185	0.864448	65.3599	1.02792	71.9471	1.29869	92.0021	0.222827	16.6032	1.37138	2.60157	0.693011	51.9885	1.08188	82.4692
1.37342	2.45679	1.37367	2.45666	0.44089	29.0614	0.864096	58.9048	1.02854	65.3854	1.29862	83.4627	0.224207	15.0838	1.3678	2.60191	0.694811	47.031	1.08173	74.2847
1.37069	2.45826	1.37094	2.45813	0.442345	26.6243	0.863711	53.6043	1.02923	59.9299	1.29854	76.3727	0.225707	13.8407	1.36421	2.60222	0.696684	42.9605	1.08157	67.5754
1.36797	2.45976	1.36822	2.45962	0.443896	24.5821	0.863296	49.1735	1.02997	55.3233	1.29845	70.392	0.227322	12.8062	1.3606	2.6025	0.698621	39.559	1.08139	61.9754
1.36526	2.46127	1.36551	2.46113	0.445537	22.8468	0.862851	45.4145	1.03076	51.3821	1.29836	65.279	0.229046	11.9331	1.35698	2.60276	0.700611	36.6743	1.0812	57.2303
1.36256	2.4628	1.36281	2.46266	0.44726	21.3546	0.862378	42.1848	1.0316	47.9725	1.29826	60.8576	0.230874	11.1871	1.35335	2.603	0.702648	34.1972	1.08099	53.1581
1.35986	2.46436	1.36011	2.46422	0.449061	20.0582	0.861879	39.3799	1.03249	44.9939	1.29816	56.9964	0.232802	10.5431	1.3497	2.60321	0.704726	32.0471	1.08078	49.6251
1.35717	2.46593	1.35742	2.46579	0.450933	18.9219	0.861354	36.9211	1.03343	42.3699	1.29805	53.5951	0.234823	9.98214	1.34604	2.6034	0.70684	30.1634	1.08055	46.5308
1.35449	2.46752	1.35473	2.46737	0.452871	17.918	0.860805	34.7477	1.03442	40.0409	1.29793	50.5763	0.236933	9.48958	1.34237	2.60357	0.708986	28.4995	1.08031	43.7981
1.3518	2.46912	1.35205	2.46898	0.45487	17.0249	0.860234	32.8129	1.03545	37.96	1.29781	47.8788	0.239126	9.05401	1.33869	2.60373	0.71116	27.0193	1.08005	41.3671
1.34912	2.47073	1.34936	2.47059	0.456926	16.2253	0.859642	31.0792	1.03653	36.0898	1.29769	45.4539	0.241398	8.6664	1.335	2.60386	0.713359	25.6938	1.07979	39.1904
1.34643	2.47235	1.34668	2.4722	0.459033	15.5054	0.859032	29.5168	1.03765	34.4	1.29756	43.2622	0.243743	8.3195	1.3313	2.60398	0.71558	24.5001	1.07951	37.2301
1.34374	2.47396	1.34398	2.47382	0.461189	14.854	0.858403	28.1015	1.03881	32.8659	1.29743	41.2717	0.246158	8.00741	1.3276	2.60407	0.717822	23.4195	1.07923	35.4553
1.34103	2.47556	1.34128	2.47541	0.46339	14.2619	0.857759	26.8135	1.04001	31.4669	1.2973	39.4559	0.248314	7.76005	1.32388	2.60416	0.720082	22.4367	1.07893	33.841
1.33829	2.4771	1.33854	2.47697	0.465631	13.7213	0.8571	25.6362	1.04125	30.1861	1.29716	37.7926	0.250189	7.56515	1.32016	2.60423	0.722358	21.5389	1.07863	32.3662
1.33551	2.47857	1.33576	2.47844	0.467909	13.2259	0.856429	24.556	1.04252	29.0092	1.29702	36.2636	0.251763	7.41399	1.31642	2.60428	0.724649	20.7157	1.07832	31.0136
1.33263	2.47987	1.3329	2.47976	0.470222	12.7703	0.855746	23.5613	1.04383	27.9241	1.29688	34.8531	0.253023	7.30036	1.31269	2.60432	0.726954	19.958	1.078	29.7686
1.32961	2.48092	1.32989	2.48084	0.472567	12.3499	0.855054	22.6424	1.04517	26.9205	1.29673	33.5479	0.253957	7.21993	1.30894	2.60435	0.72927	19.2585	1.07767	28.6189
1.32639	2.48159	1.32669	2.48155	0.474941	11.9607	0.854354	21.791	1.04655	25.9897	1.29659	32.3366	0.254558	7.16978	1.30519	2.60437	0.731598	18.6106	1.07734	27.554
1.32296	2.48187	1.32328	2.48186	0.477342	11.5996	0.853647	20.9999	1.04795	25.124	1.29644	31.2095	0.255427	7.09942	1.30143	2.60437	0.733935	18.0088	1.077	26.5647
1.31935	2.48182	1.31968	2.48184	0.479767	11.2634	0.852935	20.2629	1.04938	24.3168	1.2963	30.1581	0.256378	7.02519	1.29767	2.60436	0.736282	17.4484	1.07666	25.6433
1.31563	2.48156	1.31597	2.48159	0.482214	10.9498	0.85222	19.5747	1.05084	23.5626	1.29615	29.175	0.257681	6.9278	1.2939	2.60434	0.738636	16.9253	1.07631	24.783
1.31184	2.48116	1.31218	2.4812	0.484681	10.6566	0.851503	18.9306	1.05233	22.8562	1.296	28.2537	0.259344	6.81018	1.29013	2.60432	0.740996	16.4358	1.07596	23.9781
1.308	2.48068	1.30835	2.48073	0.487167	10.3818	0.850785	18.3266	1.05384	22.1932	1.29586	27.3887	0.261378	6.67562	1.28635	2.60428	0.743363	15.9768	1.07561	23.2232
1.30414	2.48014	1.30449	2.48019	0.489668	10.1237	0.850069	17.759	1.05537	21.5698	1.29571	26.575	0.263792	6.52759	1.28257	2.60423	0.745735	15.5455	1.07526	22.5139
1.30026	2.47957	1.30061	2.47962	0.492184	9.88084	0.849355	17.2247	1.05692	20.9826	1.29557	25.8081	0.266599	6.36954	1.27878	2.60417	0.748112	15.1395	1.0749	21.8462
1.29636	2.47897	1.29672	2.47902	0.494713	9.65193	0.848644	16.7208	1.0585	20.4285	1.29543	25.0841	0.269441	6.22285	1.27499	2.60411	0.750492	14.7567	1.07454	21.2166
1.29246	2.47835	1.29282	2.4784	0.497254	9.43578	0.847939	16.2449	1.06009	19.9047	1.2953	24.3995	0.272315	6.08635	1.2712	2.60404	0.752875	14.395	1.07419	20.6219
1.28856	2.47771	1.28891	2.47777	0.499804	9.23133	0.84724	15.7948	1.0617	19.409	1.29517	23.7513	0.275219	5.95901	1.2674	2.60396	0.75526	14.0528	1.07383	20.0592
1.28464	2.47707	1.285	2.47713	0.502362	9.03765	0.84655	15.3684	1.06333	18.939	1.29504	23.1365	0.278149	5.83995	1.2636	2.60387	0.757646	13.7285	1.07348	19.5261
1.28073	2.47641	1.28109	2.47647	0.504928	8.8539	0.845868	14.9639	1.06497	18.4928	1.29492	22.5528	0.281103	5.72838	1.2598	2.60378	0.760034	13.4207	1.07313	19.0204
1.27681	2.47575	1.27717	2.47581	0.507499	8.67932	0.845197	14.5797	1.06662	18.0687	1.2948	21.9978	0.284079	5.6236	1.25599	2.60368	0.762421	13.1283	1.07278	18.5399
1.27289	2.47508	1.27325	2.47514	0.510075	8.51322	0.844538	14.2145	1.06829	17.665	1.29469	21.4694	0.287073	5.52501	1.25218	2.60357	0.764807	12.85	1.07244	18.0829
1.26897	2.4744	1.26933	2.47446	0.512653	8.35498	0.843892	13.8667	1.06997	17.2803	1.29459	20.9659	0.290083	5.43205	1.24837	2.60346	0.767193	12.5849	1.0721	17.6478
1.26505	2.47372	1.26541	2.47378	0.515234	8.20405	0.84326	13.5353	1.07166	16.9133	1.29449	20.4855	0.293108	5.34424	1.24456	2.60334	0.769576	12.332	1.07177	17.2329
1.26113	2.47303	1.26149	2.47309	0.517815	8.0599	0.842644	13.2192	1.07336	16.5628	1.2944	20.0267	0.296144	5.26114	1.24074	2.60322	0.771956	12.0905	1.07144	16.8369
1.25721	2.47234	1.25757	2.4724	0.520395	7.92209	0.842044	12.9173	1.07506	16.2277	1.29433	19.588	0.29919	5.18237	1.23692	2.6031	0.774334	11.8596	1.07113	16.4586
1.25329	2.47165	1.25365	2.47171	0.522642	7.80682	0.841463	12.6287	1.07678	15.907	1.29426	19.1683	0.302244	5.10757	1.2331	2.60296	0.776707	11.6387	1.07082	16.0969
1.24937	2.47095	1.24973	2.47101	0.524557	7.7119	0.8409	12.3527	1.07849	15.5997	1.2942	18.7663	0.305304	5.03642	1.22928	2.60283	0.779075	11.427	1.07052	15.7506
1.24545	2.47025	1.24581	2.47031	0.526138	7.63562	0.840358	12.0884	1.08021	15.3051	1.29415	18.3809	0.308367	4.96865	1.22546	2.60269	0.781439	11.2241	1.07023	15.4189
1.24153	2.46954	1.24189	2.46961	0.527388	7.57666	0.839837	11.8352	1.08194	15.0223	1.29412	18.0112	0.311432	4.90398	1.22164	2.60255	0.783796	11.0293	1.06995	15.1009
1.23762	2.46884	1.23797	2.4689	0.528306	7.53406	0.839339	11.5924	1.08366	14.7507	1.2941	17.6562	0.314496	4.84218	1.21781	2.6024	0.786147	10.8421	1.06969	14.7958
1.2337	2.46813	1.23405	2.46819	0.528893	7.50711	0.838865	11.3594	1.08539	14.4895	1.29409	17.3151	0.317559	4.78305	1.21399	2.60225	0.78849	10.6622	1.06944	14.5027
1.22978	2.46742	1.23014	2.46748	0.529737	7.46881	0.838416	11.1356	1.08712	14.2382	1.2941	16.9872	0.320618	4.72637	1.21016	2.6021	0.790826	10.4891	1.0692	14.2211
1.22586	2.46671	1.22622	2.46677	0.530653	7.42774	0.837992	10.9207	1.08885	13.9962	1.29412	16.6716	0.323672	4.67198	1.20633	2.60195	0.793152	10.3223	1.06898	13.9504
1.22195	2.46599	1.22231	2.46606	0.531898	7.37282	0.837595	10.714	1.09057	13.763	1.29416	16.3677	0.326719	4.61971	1.20251	2.6018	0.79547	10.1616	1.06877	13.6898
1.21804	2.46527	1.21839	2.46534	0.53347	7.30483	0.837227	10.5151	1.09229	13.5381	1.29422	16.075	0.329757	4.56941	1.19868	2.60164	0.797778	10.0066	1.06858	13.4389
1.21412	2.46455	1.21448	2.46462	0.535368	7.22475	0.836888	10.3237	1.094	13.3211	1.29429	15.7928	0.332784	4.52094	1.19485	2.60148	0.800075	9.85693	1.0684	13.1971
1.21021	2.46383	1.21057	2.4639	0.537588	7.13363	0.836579	10.1394	1.09572	13.1115	1.29438	15.5206	0.3358	4.47418	1.19103	2.60133	0.80236	9.71238	1.06825	12.964
1.2063	2.46311	1.20666	2.46318	0.540128	7.03264	0.836301	9.96173	1.09742	12.9089	1.29449	15.2578	0.338802	4.429	1.1872	2.60117	0.804634	9.57265	1.06811	12.7392
1.20239	2.46239	1.20275	2.46245	0.542659	6.93524	0.836056	9.79048	1.09911	12.713	1.29463	15.0041	0.341788	4.3853	1.18337	2.60101	0.806895	9.43749	1.06799	12.5223
1.19849	2.46166	1.19884	2.46173	0.545178	6.84125	0.835843	9.6253	1.1008	12.5235	1.29478	14.759	0.344759	4.34298	1.17955	2.60086	0.809143	9.30667	1.0679	12.3128
1.19458	2.46093	1.19494	2.461	0.547686	6.75045	0.835665	9.46592	1.10248	12.3399	1.29496	14.5221	0.347711	4.30195	1.17573	2.6007	0.811377	9.17996	1.06782	12.1104
1.19068	2.46021	1.19103	2.46027	0.550181	6.66267	0.835523	9.31205	1.10415	12.1621	1.29515	14.293	0.350643	4.26211	1.1719	2.60055	0.813596	9.05716	1.06777	11.9148
1.18677	2.45948	1.18713	2.45954	0.552662	6.57774	0.835416	9.16345	1.1058	11.9897	1.29538	14.0713	0.353554	4.2234	1.16808	2.6004	0.8158	8.93808	1.06774	11.7256
1.18287	2.45875	1.18323	2.45881	0.555129	6.49552	0.835347	9.01989	1.10745	11.8225	1.29562	13.8567	0.356443	4.18574	1.16426	2.60026	0.817988	8.82253	1.06774	11.5426
1.17897	2.45802	1.17933	2.45808	0.55758	6.41584	0.835315	8.88114	1.10908	11.6602	1.29589	13.6489	0.359308	4.14906	1.16045	2.60011	0.820159	8.71035	1.06776	11.3655
1.17508	2.45729	1.17543	2.45735	0.560015	6.33858	0.835323	8.74698	1.11069	11.5027	1.29619	13.4476	0.362148	4.11329	1.15663	2.59998	0.822313	8.60138	1.06781	11.1941
1.17118	2.45656	1.17154	2.45662	0.562432	6.26362	0.83537	8.61724	1.11229	11.3496	1.29652	13.2526	0.364961	4.07838	1.15282	2.59984	0.824449	8.49546	1.06789	11.028
1.16729	2.45582	1.16764	2.45589	0.564831	6.19082	0.835458	8.49171	1.11388	11.2008	1.29687	13.0634	0.367746	4.04428	1.14901	2.59972	0.826567	8.39246	1.06799	10.8671
1.1634	2.45509	1.16375	2.45516	0.567211	6.12009	0.835588	8.37023	1.11545	11.0561	1.29726	12.88	0.370503	4.01093	1.14521	2.5996	0.828666	8.29224	1.06813	10.7111
1.15951	2.45436	1.15986	2.45443	0.569572	6.05131	0.83576	8.25263	1.117	10.9153	1.29767	12.7021	0.373229	3.97828	1.14141	2.59949	0.830745	8.19469	1.06829	10.5599
1.15562	2.45363	1.15597	2.45369	0.571911	5.9844	0.835945	8.1532	1.11853	10.7782	1.29811	12.5294	0.375924	3.94629	1.13761	2.59939	0.83254	8.11175	1.06848	10.4133
1.15173	2.4529	1.15209	2.45296	0.574228	5.91925	0.836128	8.07059	1.12004	10.6448	1.29858	12.3617	0.378587	3.91492	1.13382	2.59929	0.834057	8.04252	1.06871	10.271
1.14785	2.45217	1.1482	2.45223	0.576524	5.85578	0.836299	8.00373	1.12153	10.5147	1.29909	12.1989	0.381216	3.88414	1.13003	2.59921	0.835304	7.98625	1.06896	10.1329
1.14397	2.45143	1.14432	2.4515	0.578796	5.79392	0.836445	7.95178	1.123	10.3879	1.29963	12.0408	0.383812	3.85391	1.12625	2.59915	0.836283	7.94238	1.06925	9.99878
1.14009	2.4507	1.14045	2.45077	0.581044	5.73358	0.83656	7.91409	1.12445	10.2643	1.3002	11.8871	0.386372	3.82419	1.12248	2.59909	0.837	7.91046	1.06957	9.86859
1.13622	2.44997	1.13657	2.45004	0.583267	5.67469	0.836636	7.89018	1.12588	10.1437	1.3008	11.7377	0.388897	3.79497	1.11871	2.59906	0.837458	7.89019	1.06993	9.74214
1.13234	2.44925	1.1327	2.44931	0.585465	5.6172	0.83675	7.85612	1.12729	10.026	1.30144	11.5925	0.391385	3.7662	1.11495	2.59904	0.838113	7.86124	1.07032	9.61927
1.12847	2.44852	1.12883	2.44859	0.587637	5.56102	0.836879	7.81949	1.12867	9.91106	1.30211	11.4513	0.393837	3.73788	1.1112	2.59904	0.838823	7.83003	1.07074	9.49987
1.12461	2.44779	1.12496	2.44786	0.589782	5.50612	0.837064	7.77032	1.13003	9.79881	1.30282	11.3139	0.396251	3.70997	1.10746	2.59907	0.839784	7.78804	1.07121	9.3838
1.12074	2.44707	1.12109	2.44714	0.5919	5.45242	0.837314	7.70919	1.13137	9.68913	1.30357	11.1802	0.398628	3.68246	1.10373	2.59912	0.840991	7.73563	1.07171	9.27095
1.11688	2.44635	1.11723	2.44641	0.593991	5.39988	0.83764	7.63679	1.13268	9.58192	1.30435	11.0501	0.400967	3.65532	1.10001	2.5992	0.842439	7.67327	1.07224	9.16119
1.11302	2.44563	1.11337	2.44569	0.596053	5.34844	0.838054	7.55395	1.13397	9.47709	1.30516	10.9235	0.403267	3.62855	1.0963	2.5993	0.844122	7.60151	1.07281	9.05442
1.10917	2.44491	1.10952	2.44498	0.598086	5.29807	0.838574	7.46156	1.13523	9.37456	1.30602	10.8002	0.40553	3.60213	1.09261	2.59944	0.846031	7.52094	1.07342	8.95055
1.10531	2.4442	1.10566	2.44426	0.60009	5.24871	0.839142	7.37193	1.13647	9.27424	1.30691	10.68	0.407755	3.57604	1.08894	2.59962	0.847915	7.4422	1.07407	8.84945
1.10146	2.44348	1.10181	2.44355	0.602064	5.20033	0.839757	7.28496	1.13768	9.17606	1.30783	10.563	0.409942	3.55028	1.08528	2.59984	0.849775	7.36522	1.07476	8.75105
1.09762	2.44277	1.09797	2.44284	0.604008	5.15288	0.84042	7.20056	1.13887	9.07993	1.3088	10.449	0.412091	3.52484	1.08163	2.60011	0.851611	7.28993	1.07549	8.65525
1.09378	2.44207	1.09413	2.44213	0.605923	5.10633	0.841133	7.11863	1.14003	8.9858	1.3098	10.3379	0.414204	3.4997	1.07801	2.60043	0.853421	7.21626	1.07625	8.56196
1.08994	2.44137	1.09029	2.44143	0.607807	5.06065	0.841893	7.03908	1.14117	8.89359	1.31084	10.2295	0.41628	3.47487	1.07441	2.6008	0.855205	7.14416	1.07706	8.4711
1.0861	2.44067	1.08645	2.44073	0.60966	5.01581	0.842703	6.96184	1.14228	8.80324	1.31192	10.1239	0.418321	3.45033	1.07084	2.60124	0.856964	7.07357	1.07779	8.39384
1.08227	2.43997	1.08262	2.44004	0.611483	4.97176	0.843562	6.88681	1.14337	8.71469	1.31303	10.0209	0.420327	3.42609	1.06729	2.60174	0.858698	7.00442	1.07844	8.32934
1.07845	2.43928	1.07879	2.43935	0.613275	4.92849	0.84447	6.81393	1.14444	8.62789	1.31418	9.92038	0.422299	3.40213	1.06377	2.60232	0.860405	6.93668	1.079	8.27694
1.07462	2.4386	1.07497	2.43866	0.615036	4.88597	0.845426	6.74311	1.14548	8.54277	1.31537	9.82232	0.424237	3.37846	1.06028	2.60298	0.862087	6.87029	1.07945	8.23609
1.07081	2.43792	1.07115	2.43798	0.616766	4.84417	0.846432	6.6743	1.14636	8.46994	1.31659	9.72662	0.426144	3.35508	1.05683	2.60372	0.863742	6.80521	1.07978	8.20637
1.06699	2.43725	1.06734	2.43731	0.618466	4.80307	0.847486	6.60741	1.14711	8.40881	1.31785	9.6332	0.428019	3.33198	1.05341	2.60457	0.865372	6.74138	1.08	8.1875
1.06318	2.43658	1.06353	2.43664	0.620136	4.76266	0.848589	6.54239	1.14771	8.35891	1.31914	9.542	0.429865	3.30917	1.05004	2.60552	0.866976	6.67878	1.08032	8.16056
1.05938	2.43592	1.05973	2.43598	0.621775	4.72289	0.84974	6.47916	1.14818	8.31987	1.32047	9.45292	0.431683	3.28664	1.0467	2.60658	0.868554	6.61736	1.08066	8.13153
1.05558	2.43526	1.05593	2.43532	0.623385	4.68377	0.850939	6.41767	1.14853	8.29139	1.32184	9.36592	0.433473	3.2644	1.04341	2.60776	0.870106	6.55708	1.08115	8.09247
1.05178	2.43462	1.05213	2.43468	0.624965	4.64526	0.852185	6.35786	1.14875	8.27326	1.32324	9.28092	0.435237	3.24244	1.04017	2.60908	0.871633	6.49791	1.08177	8.04375
1.048	2.43398	1.04834	2.43404	0.626516	4.60736	0.853479	6.29967	1.14906	8.24734	1.32467	9.19785	0.436977	3.22077	1.03698	2.61053	0.873136	6.43981	1.08254	7.98583
1.04421	2.43335	1.04456	2.43341	0.628039	4.57005	0.854818	6.24305	1.14939	8.21934	1.32614	9.11666	0.438695	3.19939	1.03385	2.61212	0.874613	6.38276	1.08348	7.91925
1.04043	2.43273	1.04078	2.43278	0.629533	4.53331	0.856204	6.18793	1.14985	8.18157	1.32763	9.03728	0.44039	3.1783	1.03076	2.61387	0.876067	6.32673	1.08459	7.84461
1.03666	2.43211	1.03701	2.43217	0.631	4.49713	0.857634	6.13428	1.15041	8.13428	1.32916	8.95966	0.442066	3.15751	1.02774	2.61577	0.877497	6.27168	1.08574	7.77179
1.0329	2.43151	1.03324	2.43157	0.63244	4.4615	0.859109	6.08204	1.15109	8.0778	1.33072	8.88374	0.443724	3.13701	1.02477	2.61783	0.878904	6.21759	1.08693	7.70073
1.02914	2.43092	1.02948	2.43097	0.633854	4.4264	0.860628	6.03117	1.15186	8.01253	1.33231	8.80947	0.445364	3.1168	1.02186	2.62005	0.880288	6.16444	1.08815	7.63137
1.02538	2.43034	1.02572	2.43039	0.635242	4.39183	0.862189	5.9816	1.15274	7.93889	1.33393	8.7368	0.446989	3.09689	1.01901	2.62244	0.88165	6.1122	1.08942	7.56367
1.02163	2.42977	1.02198	2.42982	0.636605	4.35777	0.863793	5.93331	1.15359	7.86657	1.33537	8.67473	0.4486	3.07728	1.01621	2.625	0.882992	6.06085	1.09072	7.49757
1.01789	2.42922	1.01824	2.42927	0.637944	4.32421	0.865437	5.88625	1.15443	7.79554	1.33661	8.62272	0.450199	3.05797	1.01347	2.62772	0.884313	6.01037	1.09205	7.43302
1.01416	2.42867	1.0145	2.42872	0.63926	4.29115	0.867122	5.84037	1.15524	7.72576	1.33764	8.58033	0.451787	3.03896	1.01079	2.6306	0.885614	5.96074	1.09343	7.36996
1.01044	2.42814	1.01078	2.42819	0.640554	4.25857	0.868845	5.79564	1.15605	7.65722	1.33847	8.54719	0.453365	3.02025	1.00815	2.63365	0.886896	5.91194	1.09484	7.30836
1.00672	2.42763	1.00706	2.42768	0.641826	4.22647	0.870607	5.75201	1.15683	7.58986	1.33908	8.52304	0.454936	3.00185	1.00557	2.63685	0.888161	5.86395	1.09628	7.24817
1.00301	2.42713	1.00335	2.42717	0.643077	4.19484	0.872406	5.70945	1.15761	7.52368	1.33947	8.50768	0.4565	2.98375	1.00304	2.64021	0.889409	5.81676	1.09776	7.18934
0.999306	2.42665	0.999643	2.42669	0.644309	4.16367	0.87424	5.66791	1.15836	7.45864	1.34004	8.48572	0.458058	2.96596	1.00056	2.64372	0.890641	5.77035	1.09927	7.13183
0.995613	2.42618	0.995949	2.42622	0.645522	4.13296	0.876109	5.62737	1.15911	7.39472	1.34066	8.46202	0.459613	2.94847	0.998124	2.64737	0.891859	5.7247	1.10082	7.0756
0.991928	2.42574	0.992263	2.42578	0.646717	4.1027	0.878012	5.58779	1.15984	7.33189	1.34151	8.43008	0.461165	2.93128	0.99573	2.65117	0.893062	5.67981	1.1024	7.0206
0.988252	2.42531	0.988587	2.42535	0.647895	4.07288	0.879947	5.54913	1.16057	7.27014	1.34259	8.39012	0.462716	2.9144	0.993376	2.65511	0.894253	5.63565	1.10401	6.96681
0.984586	2.4249	0.984919	2.42494	0.649057	4.04349	0.881914	5.51136	1.16128	7.20943	1.34391	8.34247	0.464266	2.89782	0.991062	2.65918	0.895433	5.59221	1.10564	6.91417
0.980929	2.42451	0.981262	2.42455	0.650205	4.01454	0.88391	5.47446	1.16199	7.14974	1.34547	8.28747	0.465818	2.88155	0.988784	2.66339	0.896603	5.54949	1.10731	6.86265
0.977283	2.42415	0.977614	2.42418	0.651338	3.98602	0.885935	5.43839	1.16269	7.09107	1.34729	8.22552	0.467372	2.86558	0.986541	2.66772	0.897763	5.50748	1.10901	6.81223
0.973646	2.42381	0.973977	2.42384	0.652459	3.95792	0.887988	5.40311	1.16338	7.03338	1.34913	8.16479	0.46893	2.8499	0.984331	2.67217	0.900063	5.4255	1.11073	6.76286
