Sym0		Sym1		Sym2		Sym3		Sym4		Sym5		Asym1		Asym2		Asym3		Asym4	
407  Points		407  Points		395  Points		365  Points		256  Points		151  Points		409  Points		382  Points		360  Points		265  Points	
Freq (MHz)	Vph (m/ms)	Freq (MHz)	Vph (m/ms)	Freq (MHz)	Vph (m/ms)	Freq (MHz)	Vph (m/ms)	Freq (MHz)	Vph (m/ms)	Freq (MHz)	Vph (m/ms)	Freq (MHz)	Vph (m/ms)	Freq (MHz)	Vph (m/ms)	Freq (MHz)	Vph (m/ms)	Freq (MHz)	Vph (m/ms)
1.40192	2.42139	1.40284	2.42106	0.433036	525.589	0.866023	1931.31	1.00188	9717.37	1.29904	1328.59	0.216574	158.12	1.40243	2.58596	0.667941	1577.27	1.08253	1110.49
1.39902	2.42242	1.39994	2.42209	0.43319	191.061	0.865984	457.759	1.00192	647.872	1.29902	536.536	0.216792	77.0661	1.39937	2.58721	0.668345	358.006	1.0825	447.65
1.39613	2.42347	1.39705	2.42314	0.433486	116.822	0.865896	259.626	1.00204	335.145	1.299	336.137	0.217158	51.0188	1.39627	2.5884	0.669205	202.163	1.08246	280.316
1.39325	2.42455	1.39417	2.42421	0.433922	84.1907	0.86576	181.177	1.00222	226.071	1.29897	244.724	0.217672	38.1894	1.39315	2.58953	0.670425	141.035	1.08239	204.035
1.39038	2.42565	1.39129	2.4253	0.434495	65.8584	0.865576	139.117	1.00248	170.589	1.29892	192.398	0.218332	30.565	1.38999	2.59061	0.671913	108.426	1.08231	160.382
1.38752	2.42677	1.38843	2.42641	0.435201	54.1243	0.865346	112.891	1.00281	136.997	1.29887	158.503	0.219133	25.5205	1.3868	2.59163	0.673594	88.1626	1.08221	132.11
1.38467	2.42792	1.38558	2.42755	0.436037	45.9753	0.86507	94.9722	1.00322	114.479	1.29881	134.759	0.220074	21.9417	1.38357	2.5926	0.675415	74.3544	1.08208	112.307
1.38183	2.42909	1.38274	2.42871	0.436996	39.9904	0.864749	81.9509	1.00369	98.336	1.29873	117.2	0.221149	19.2751	1.38032	2.59351	0.67734	64.3425	1.08194	97.6616
1.379	2.43028	1.3799	2.42989	0.438073	35.4116	0.864385	72.0596	1.00423	86.1991	1.29865	103.687	0.222355	17.2145	1.37703	2.59437	0.679344	56.7516	1.08178	86.3913
1.37618	2.43149	1.37708	2.4311	0.439263	31.7977	0.863979	64.2899	1.00484	76.7432	1.29856	92.9658	0.223687	15.577	1.37372	2.59518	0.681409	50.7988	1.08159	77.4493
1.37337	2.43273	1.37426	2.43233	0.440559	28.8746	0.863532	58.0246	1.00551	69.1696	1.29846	84.2524	0.22514	14.2463	1.37037	2.59595	0.683522	46.006	1.08139	70.1814
1.37057	2.43399	1.37146	2.43358	0.441956	26.4628	0.863047	52.8648	1.00624	62.9681	1.29835	77.0308	0.22671	13.145	1.367	2.59666	0.685676	42.0645	1.08118	64.1574
1.36778	2.43527	1.36866	2.43486	0.443447	24.4398	0.862525	48.5412	1.00704	57.7976	1.29823	70.948	0.22839	12.2198	1.3636	2.59733	0.687864	38.766	1.08094	59.083
1.36499	2.43658	1.36588	2.43616	0.445026	22.7196	0.861969	44.8655	1.0079	53.4214	1.2981	65.7542	0.230176	11.4325	1.36018	2.59795	0.69008	35.9653	1.08069	54.7498
1.36222	2.43791	1.3631	2.43748	0.446688	21.2393	0.861379	41.7018	1.00882	49.6701	1.29796	61.2678	0.232063	10.7551	1.35674	2.59853	0.692321	33.5577	1.08042	51.0064
1.35946	2.43926	1.36033	2.43883	0.448427	19.9527	0.860758	38.95	1.00979	46.4192	1.29781	57.3533	0.234044	10.1668	1.35327	2.59907	0.694583	31.466	1.08014	47.7399
1.3567	2.44064	1.35758	2.4402	0.450239	18.8243	0.860107	36.5344	1.01082	43.5752	1.29766	53.9079	0.236115	9.65166	1.34978	2.59958	0.696865	29.6318	1.07984	44.8645
1.35396	2.44204	1.35483	2.44159	0.452117	17.827	0.85943	34.3968	1.0119	41.0665	1.2975	50.8521	0.238271	9.19714	1.34626	2.60004	0.699163	28.0104	1.07952	42.3139
1.35122	2.44347	1.35209	2.44301	0.454057	16.9395	0.858728	32.4917	1.01303	38.8374	1.29733	48.1231	0.240506	8.79351	1.34273	2.60047	0.701477	26.5668	1.07919	40.0359
1.34849	2.44492	1.34936	2.44446	0.456055	16.1447	0.858003	30.7831	1.01421	36.8438	1.29715	45.6714	0.242816	8.43294	1.33918	2.60087	0.703804	25.2734	1.07885	37.989
1.34578	2.44639	1.34664	2.44592	0.458107	15.4289	0.857258	29.242	1.01543	35.0504	1.29697	43.4565	0.245196	8.1091	1.33562	2.60123	0.706144	24.1079	1.07849	36.1397
1.34307	2.44789	1.34393	2.44741	0.460207	14.7811	0.856493	27.845	1.0167	33.4287	1.29678	41.4458	0.247642	7.81683	1.33203	2.60157	0.708495	23.0522	1.07812	34.4606
1.34037	2.44941	1.34122	2.44893	0.462354	14.1921	0.855712	26.5727	1.01801	31.9553	1.29659	39.6122	0.249823	7.58455	1.32844	2.60187	0.710857	22.0916	1.07774	32.9293
1.33767	2.45096	1.33853	2.45047	0.464543	13.6544	0.854916	25.4091	1.01936	30.6109	1.29639	37.9334	0.251716	7.4011	1.32482	2.60215	0.713228	21.2137	1.07735	31.527
1.33499	2.45253	1.33584	2.45203	0.466771	13.1615	0.854107	24.3409	1.02075	29.3792	1.29618	36.3905	0.253304	7.25858	1.32119	2.60241	0.715607	20.4083	1.07695	30.2381
1.33231	2.45412	1.33316	2.45361	0.469034	12.7081	0.853288	23.3568	1.02218	28.2468	1.29598	34.9676	0.254574	7.15129	1.31755	2.60263	0.717994	19.6668	1.07654	29.0493
1.32964	2.45573	1.33049	2.45521	0.471331	12.2897	0.852459	22.4472	1.02364	27.2022	1.29576	33.6513	0.255515	7.07528	1.3139	2.60284	0.720388	18.9819	1.07613	27.9495
1.32698	2.45736	1.32783	2.45684	0.473658	11.9024	0.851623	21.6041	1.02514	26.2356	1.29555	32.4301	0.256121	7.02785	1.31024	2.60302	0.722788	18.3474	1.0757	26.9289
1.32433	2.45902	1.32517	2.45849	0.476013	11.5429	0.850783	20.8204	1.02666	25.3387	1.29533	31.2939	0.256996	6.96126	1.30656	2.60318	0.725193	17.7578	1.07527	25.9794
1.32167	2.46069	1.32252	2.46015	0.478393	11.2084	0.849938	20.0901	1.02822	24.5041	1.29511	30.2343	0.257952	6.89095	1.30287	2.60332	0.727603	17.2086	1.07483	25.0937
1.31902	2.46237	1.31987	2.46183	0.480796	10.8962	0.849092	19.408	1.0298	23.7257	1.29488	29.2437	0.259262	6.79863	1.29918	2.60345	0.730017	16.6957	1.07439	24.2657
1.31638	2.46407	1.31722	2.46353	0.48322	10.6043	0.848246	18.7694	1.03141	22.998	1.29466	28.3156	0.260934	6.68698	1.29547	2.60355	0.732435	16.2157	1.07394	23.4898
1.31373	2.46577	1.31457	2.46523	0.485663	10.3306	0.847401	18.1704	1.03304	22.3162	1.29443	27.4443	0.262976	6.55908	1.29176	2.60364	0.734855	15.7655	1.07349	22.7614
1.31107	2.46747	1.31192	2.46693	0.488124	10.0737	0.84656	17.6074	1.0347	21.6761	1.29421	26.6247	0.265398	6.41815	1.28803	2.60371	0.737278	15.3424	1.07304	22.0762
1.3084	2.46915	1.30925	2.46862	0.490599	9.8319	0.845723	17.0773	1.03637	21.074	1.29398	25.8524	0.268211	6.26742	1.2843	2.60377	0.739702	14.944	1.07259	21.4304
1.3057	2.47079	1.30656	2.47028	0.493087	9.60397	0.844892	16.5774	1.03807	20.5066	1.29376	25.1235	0.271057	6.12725	1.28057	2.60381	0.742127	14.5682	1.07213	20.8209
1.30296	2.47235	1.30384	2.47187	0.495588	9.38873	0.84407	16.1051	1.03979	19.9711	1.29353	24.4343	0.273932	5.99658	1.27682	2.60383	0.744552	14.2131	1.07168	20.2446
1.30014	2.47377	1.30105	2.47334	0.498099	9.18513	0.843256	15.6584	1.04152	19.4647	1.29331	23.7817	0.276833	5.87448	1.27307	2.60385	0.746977	13.877	1.07122	19.6989
1.29719	2.47496	1.29814	2.47461	0.500618	8.99224	0.842454	15.2352	1.04327	18.9853	1.29309	23.1629	0.279758	5.76013	1.26931	2.60385	0.749402	13.5585	1.07077	19.1815
1.29405	2.47579	1.29507	2.47557	0.503144	8.80923	0.841663	14.8337	1.04503	18.5306	1.29288	22.5754	0.282705	5.6528	1.26555	2.60384	0.751824	13.2562	1.07032	18.6902
1.2907	2.47622	1.29179	2.47613	0.505676	8.63534	0.840886	14.4523	1.0468	18.0989	1.29267	22.0169	0.285669	5.55185	1.26178	2.60382	0.754245	12.9688	1.06988	18.2232
1.28716	2.47629	1.28831	2.4763	0.508212	8.46988	0.840124	14.0897	1.04859	17.6884	1.29247	21.4852	0.28865	5.45671	1.258	2.60378	0.756663	12.6953	1.06944	17.7786
1.28349	2.4761	1.28467	2.47618	0.510752	8.31225	0.839377	13.7445	1.05039	17.2975	1.29227	20.9785	0.291645	5.36688	1.25423	2.60374	0.759078	12.4347	1.06901	17.355
1.27973	2.47573	1.28093	2.47586	0.513293	8.16188	0.838649	13.4155	1.0522	16.925	1.29208	20.4952	0.29465	5.2819	1.25044	2.60369	0.761489	12.186	1.06858	16.9509
1.27591	2.47526	1.27713	2.47542	0.515834	8.01826	0.837939	13.1016	1.05401	16.5695	1.29189	20.0336	0.297665	5.20137	1.24665	2.60363	0.763896	11.9486	1.06816	16.5649
1.27206	2.47472	1.27329	2.4749	0.518374	7.88093	0.837248	12.8019	1.05583	16.2299	1.29172	19.5923	0.300687	5.12491	1.24286	2.60356	0.766297	11.7215	1.06775	16.1961
1.26819	2.47413	1.26942	2.47432	0.520913	7.74947	0.83658	12.5155	1.05766	15.9051	1.29155	19.1701	0.303714	5.05221	1.23907	2.60348	0.768693	11.5041	1.06735	15.8431
1.2643	2.47351	1.26554	2.47371	0.523122	7.63939	0.835933	12.2415	1.05949	15.5942	1.29139	18.7657	0.306744	4.98297	1.23527	2.60339	0.771082	11.2959	1.06696	15.5052
1.2604	2.47286	1.26164	2.47307	0.525003	7.54866	0.83531	11.9791	1.06133	15.2962	1.29124	18.3781	0.309774	4.91691	1.23146	2.60329	0.773465	11.0962	1.06659	15.1812
1.25649	2.4722	1.25773	2.47241	0.526556	7.47569	0.834712	11.7278	1.06317	15.0105	1.2911	18.0062	0.312804	4.8538	1.22766	2.60319	0.77584	10.9045	1.06622	14.8705
1.25258	2.47152	1.25382	2.47174	0.527783	7.41925	0.834139	11.4868	1.06501	14.7361	1.29098	17.6492	0.315831	4.79341	1.22385	2.60308	0.778206	10.7202	1.06587	14.5723
1.24866	2.47083	1.24991	2.47105	0.528684	7.37845	0.833594	11.2556	1.06685	14.4725	1.29087	17.3062	0.318853	4.73553	1.22004	2.60297	0.780564	10.5431	1.06553	14.2858
1.24474	2.47013	1.24599	2.47036	0.52926	7.35264	0.833077	11.0336	1.06869	14.2191	1.29077	16.9764	0.321868	4.67999	1.21623	2.60285	0.782912	10.3726	1.06521	14.0103
1.24082	2.46942	1.24207	2.46965	0.530088	7.31593	0.832589	10.8202	1.07052	13.9751	1.29069	16.659	0.324875	4.62661	1.21241	2.60272	0.78525	10.2083	1.0649	13.7454
1.2369	2.46871	1.23815	2.46894	0.530986	7.27657	0.832131	10.6152	1.07235	13.7401	1.29062	16.3535	0.327872	4.57524	1.20859	2.60259	0.787577	10.05	1.06462	13.4903
1.23298	2.46799	1.23422	2.46822	0.532207	7.22389	0.831705	10.4179	1.07418	13.5137	1.29057	16.0591	0.330857	4.52574	1.20477	2.60245	0.789893	9.89728	1.06435	13.2446
1.22905	2.46726	1.2303	2.46749	0.533748	7.15865	0.831312	10.2281	1.07601	13.2952	1.29053	15.7754	0.333828	4.47798	1.20095	2.60231	0.792197	9.74981	1.0641	13.0079
1.22513	2.46653	1.22638	2.46676	0.535606	7.08174	0.830952	10.0453	1.07783	13.0843	1.29051	15.5016	0.336784	4.43183	1.19713	2.60216	0.794488	9.60734	1.06387	12.7796
1.2212	2.4658	1.22245	2.46603	0.53778	6.99416	0.830626	9.86912	1.07964	12.8806	1.29052	15.2375	0.339724	4.38718	1.1933	2.60202	0.796765	9.4696	1.06366	12.5593
1.21728	2.46506	1.21853	2.46529	0.540264	6.897	0.830337	9.69934	1.08144	12.6837	1.29054	14.9824	0.342645	4.34394	1.18948	2.60186	0.799028	9.33633	1.06347	12.3467
1.21336	2.46431	1.2146	2.46455	0.542736	6.8032	0.830084	9.53561	1.08323	12.4932	1.29058	14.736	0.345547	4.302	1.18565	2.60171	0.801276	9.20732	1.06331	12.1413
1.20943	2.46357	1.21068	2.4638	0.545196	6.71258	0.829868	9.37764	1.08502	12.3089	1.29065	14.4978	0.348427	4.26128	1.18182	2.60155	0.803509	9.08234	1.06317	11.9429
1.20551	2.46282	1.20676	2.46306	0.547641	6.62496	0.829691	9.22518	1.08679	12.1304	1.29073	14.2675	0.351284	4.2217	1.178	2.60139	0.805726	8.9612	1.06305	11.7511
1.20159	2.46207	1.20284	2.4623	0.550072	6.54017	0.829554	9.07796	1.08855	11.9574	1.29085	14.0446	0.354116	4.18318	1.17417	2.60123	0.807926	8.8437	1.06296	11.5656
1.19767	2.46131	1.19891	2.46155	0.552487	6.45805	0.829457	8.93576	1.0903	11.7897	1.29098	13.8289	0.356923	4.14565	1.17034	2.60106	0.810109	8.72967	1.0629	11.3861
1.19375	2.46055	1.19499	2.46079	0.554885	6.37847	0.829402	8.79836	1.09203	11.6269	1.29114	13.62	0.359703	4.10905	1.16651	2.6009	0.812273	8.61893	1.06287	11.2123
1.18983	2.45979	1.19107	2.46003	0.557265	6.30128	0.829389	8.66553	1.09375	11.469	1.29133	13.4177	0.362454	4.07331	1.16268	2.60073	0.814419	8.51135	1.06286	11.0441
1.18591	2.45903	1.18716	2.45927	0.559627	6.22636	0.829419	8.5371	1.09545	11.3156	1.29154	13.2216	0.365175	4.03839	1.15886	2.60057	0.816545	8.40676	1.06288	10.8812
1.18199	2.45827	1.18324	2.45851	0.561969	6.1536	0.829492	8.41287	1.09714	11.1665	1.29178	13.0316	0.367865	4.00422	1.15503	2.60041	0.818652	8.30503	1.06294	10.7233
1.17808	2.4575	1.17932	2.45774	0.56429	6.08288	0.829611	8.29268	1.09881	11.0216	1.29205	12.8472	0.370523	3.97077	1.15121	2.60024	0.820737	8.20603	1.06302	10.5702
1.17416	2.45673	1.17541	2.45698	0.56659	6.01409	0.829775	8.17635	1.10046	10.8806	1.29235	12.6684	0.373148	3.93798	1.14738	2.60008	0.822802	8.10964	1.06314	10.4218
1.17025	2.45596	1.1715	2.45621	0.568867	5.94715	0.829985	8.06373	1.10209	10.7434	1.29268	12.4948	0.375738	3.90582	1.14356	2.59992	0.824845	8.01574	1.06329	10.2778
1.16634	2.45519	1.16758	2.45544	0.571121	5.88196	0.830206	7.96851	1.1037	10.6099	1.29304	12.3264	0.378293	3.87426	1.13974	2.59977	0.826606	7.93586	1.06347	10.1382
1.16243	2.45442	1.16367	2.45466	0.573351	5.81844	0.830423	7.8894	1.1053	10.4798	1.29344	12.1628	0.380813	3.84324	1.13592	2.59962	0.828095	7.86914	1.06369	10.0026
1.15852	2.45365	1.15976	2.45389	0.575557	5.7565	0.830622	7.82537	1.10687	10.353	1.29386	12.0038	0.383295	3.81276	1.1321	2.59947	0.829316	7.8149	1.06394	9.871
1.15462	2.45287	1.15586	2.45312	0.577737	5.69607	0.830793	7.77562	1.10842	10.2294	1.29432	11.8494	0.38574	3.78276	1.12829	2.59933	0.830275	7.77259	1.06423	9.7432
1.15071	2.4521	1.15195	2.45234	0.57989	5.63708	0.830925	7.73952	1.10994	10.1088	1.29482	11.6993	0.388146	3.75324	1.12448	2.59919	0.830977	7.7418	1.06455	9.61906
1.14681	2.45132	1.14805	2.45157	0.582017	5.57947	0.831013	7.71663	1.11144	9.99113	1.29535	11.5534	0.390514	3.72416	1.12067	2.59906	0.831424	7.72223	1.06492	9.49845
1.14291	2.45054	1.14415	2.45079	0.584116	5.52317	0.831145	7.68401	1.11292	9.87628	1.29591	11.4116	0.392844	3.69551	1.11687	2.59894	0.832065	7.69429	1.06532	9.38124
1.13901	2.44976	1.14025	2.45001	0.586186	5.46812	0.831293	7.64893	1.11438	9.76412	1.29651	11.2736	0.395134	3.66726	1.11307	2.59883	0.832759	7.66417	1.06575	9.26731
1.13511	2.44899	1.13635	2.44923	0.588228	5.41427	0.831505	7.60184	1.11581	9.65455	1.29714	11.1393	0.397385	3.6394	1.10928	2.59873	0.833698	7.62362	1.06623	9.15653
1.13122	2.44821	1.13246	2.44845	0.590241	5.36156	0.83179	7.5433	1.11721	9.54747	1.29782	11.0086	0.399597	3.61191	1.10549	2.59864	0.834876	7.573	1.06675	9.04879
1.12733	2.44743	1.12856	2.44768	0.592223	5.30995	0.83216	7.47398	1.11859	9.44279	1.29853	10.8814	0.40177	3.58478	1.10171	2.59857	0.836289	7.51275	1.0673	8.94399
1.12344	2.44665	1.12467	2.4469	0.594176	5.2594	0.832628	7.39465	1.11995	9.34041	1.29927	10.7575	0.403904	3.558	1.09793	2.59851	0.837929	7.44338	1.0679	8.84203
1.11955	2.44587	1.12078	2.44612	0.596098	5.20985	0.833213	7.30619	1.12127	9.24025	1.30006	10.6369	0.406	3.53156	1.09416	2.59847	0.839787	7.36544	1.06853	8.74281
1.11566	2.44509	1.1169	2.44534	0.597989	5.16126	0.833848	7.22037	1.12257	9.14223	1.30088	10.5194	0.408057	3.50544	1.0904	2.59845	0.841619	7.28924	1.06921	8.64623
1.11178	2.44432	1.11302	2.44456	0.599849	5.11361	0.834534	7.13711	1.12385	9.04628	1.30174	10.4049	0.410078	3.47966	1.08665	2.59844	0.843425	7.21469	1.06993	8.55221
1.1079	2.44354	1.10913	2.44379	0.601677	5.06685	0.835271	7.05631	1.1251	8.95232	1.30264	10.2934	0.412062	3.45419	1.08291	2.59846	0.845205	7.14173	1.07068	8.46066
1.10402	2.44277	1.10526	2.44301	0.603474	5.02095	0.836058	6.97787	1.12632	8.86029	1.30358	10.1846	0.41401	3.42903	1.07918	2.59851	0.846958	7.07032	1.07148	8.37149
1.10015	2.44199	1.10138	2.44224	0.605239	4.97589	0.836897	6.90173	1.12752	8.77012	1.30456	10.0786	0.415924	3.40418	1.07546	2.59859	0.848684	7.00038	1.07232	8.28463
1.09628	2.44122	1.09751	2.44146	0.606973	4.93162	0.837786	6.82779	1.12869	8.68175	1.30557	9.97521	0.417804	3.37964	1.07175	2.5987	0.850384	6.93187	1.07309	8.21076
1.09241	2.44045	1.09364	2.44069	0.608675	4.88812	0.838726	6.75598	1.12983	8.59513	1.30662	9.87437	0.419651	3.35541	1.06806	2.59884	0.852056	6.86473	1.07377	8.14909
1.08854	2.43968	1.08977	2.43992	0.610345	4.84537	0.839717	6.68623	1.13095	8.51019	1.30772	9.77598	0.421467	3.33148	1.06439	2.59903	0.853702	6.79893	1.07434	8.09897
1.08468	2.43891	1.08591	2.43916	0.611984	4.80334	0.840759	6.61845	1.13204	8.42689	1.30884	9.67997	0.423253	3.30786	1.06073	2.59926	0.855321	6.73441	1.07481	8.0599
1.08082	2.43815	1.08205	2.43839	0.613592	4.76202	0.84185	6.55259	1.13311	8.34518	1.31001	9.58626	0.42501	3.28454	1.05709	2.59953	0.856913	6.67113	1.07516	8.03148
1.07697	2.43739	1.07819	2.43763	0.615169	4.72137	0.842991	6.48858	1.13402	8.27523	1.31122	9.49479	0.42674	3.26153	1.05347	2.59987	0.858478	6.60905	1.07539	8.01342
1.07311	2.43663	1.07434	2.43687	0.616716	4.68138	0.844182	6.42635	1.13479	8.21651	1.31246	9.40546	0.428444	3.23883	1.04988	2.60026	0.860017	6.54814	1.07572	7.98765
1.06927	2.43587	1.07049	2.43611	0.618232	4.64203	0.845421	6.36584	1.13541	8.16856	1.31373	9.31823	0.430124	3.21643	1.04631	2.60072	0.86153	6.48835	1.07608	7.95988
1.06542	2.43512	1.06664	2.43536	0.619719	4.60331	0.846709	6.30698	1.13589	8.13103	1.31504	9.23301	0.431781	3.19434	1.04277	2.60125	0.863017	6.42966	1.07658	7.92251
1.06158	2.43437	1.0628	2.43461	0.621177	4.56519	0.848044	6.24974	1.13624	8.10365	1.31639	9.14975	0.433417	3.17257	1.03926	2.60186	0.864479	6.37203	1.07723	7.8759
1.05774	2.43363	1.05896	2.43386	0.622607	4.52767	0.849426	6.19403	1.13647	8.08622	1.31777	9.06837	0.435033	3.1511	1.03578	2.60255	0.865916	6.31543	1.07804	7.82048
1.05391	2.43289	1.05513	2.43312	0.624008	4.49072	0.850854	6.13983	1.13679	8.0613	1.31919	8.98883	0.436631	3.12996	1.03234	2.60335	0.867329	6.25984	1.07901	7.75676
1.05008	2.43215	1.0513	2.43239	0.625382	4.45434	0.852327	6.08706	1.13713	8.03438	1.32064	8.91107	0.438213	3.10912	1.02893	2.60425	0.868717	6.20522	1.08016	7.68531
1.04626	2.43142	1.04747	2.43165	0.62673	4.41852	0.853845	6.03568	1.1376	7.99804	1.32212	8.83502	0.439779	3.08861	1.02557	2.60526	0.870083	6.15155	1.08136	7.61559
1.04244	2.4307	1.04365	2.43093	0.628052	4.38324	0.855407	5.98565	1.13818	7.95255	1.32363	8.76063	0.441333	3.06841	1.02226	2.60639	0.871426	6.09881	1.08259	7.54754
1.03862	2.42998	1.03983	2.43021	0.62935	4.34849	0.857011	5.93691	1.13887	7.89821	1.32518	8.68785	0.442874	3.04854	1.01899	2.60765	0.872747	6.04697	1.08386	7.48112
1.03481	2.42927	1.03602	2.4295	0.630623	4.31426	0.858656	5.88942	1.13967	7.83539	1.32675	8.61663	0.444406	3.02899	1.01577	2.60906	0.874048	5.99602	1.08517	7.41626
1.03101	2.42857	1.03222	2.42879	0.631873	4.28054	0.860342	5.84314	1.14056	7.7645	1.32835	8.54692	0.445928	3.00976	1.01261	2.61061	0.875328	5.94593	1.08651	7.35292
1.02721	2.42787	1.02841	2.42809	0.633101	4.24733	0.862068	5.79802	1.14144	7.69485	1.32977	8.48737	0.447444	2.99085	1.0095	2.61232	0.87659	5.89668	1.08789	7.29105
1.02341	2.42718	1.02462	2.4274	0.634307	4.21461	0.863831	5.75402	1.1423	7.62643	1.331	8.43746	0.448953	2.97226	1.00645	2.61419	0.877833	5.84826	1.08931	7.2306
1.01962	2.42651	1.02083	2.42672	0.635493	4.18238	0.865632	5.71111	1.14314	7.5592	1.33203	8.39677	0.450459	2.954	1.00346	2.61622	0.87906	5.80065	1.09076	7.17153
1.01584	2.42584	1.01704	2.42605	0.63666	4.15063	0.867468	5.66924	1.14396	7.49313	1.33284	8.36496	0.451961	2.93606	1.00053	2.61843	0.88027	5.75384	1.09225	7.11379
1.01206	2.42517	1.01326	2.42538	0.637809	4.11936	0.86934	5.62838	1.14477	7.4282	1.33345	8.34177	0.453462	2.91844	0.997654	2.62082	0.881465	5.7078	1.09377	7.05734
1.00829	2.42452	1.00949	2.42473	0.63894	4.08855	0.871244	5.58848	1.14556	7.36438	1.33384	8.32702	0.454962	2.90115	0.994844	2.62338	0.882647	5.66253	1.09532	7.00214
1.00453	2.42389	1.00572	2.42409	0.640054	4.0582	0.873181	5.54953	1.14634	7.30165	1.3344	8.30593	0.456463	2.88418	0.992093	2.62612	0.883816	5.61801	1.0969	6.94815
1.00077	2.42326	1.00196	2.42346	0.641154	4.0283	0.875149	5.51147	1.14711	7.23998	1.33501	8.28317	0.457967	2.86752	0.9894	2.62904	0.884974	5.57423	1.09852	6.89533
0.99702	2.42264	0.998211	2.42284	0.642239	3.99886	0.877146	5.47429	1.14787	7.17936	1.33585	8.25249	0.459473	2.85119	0.986765	2.63214	0.886123	5.53117	1.10016	6.84364
0.993276	2.42204	0.994465	2.42223	0.643311	3.96986	0.879171	5.43795	1.14862	7.11976	1.33692	8.2141	0.460985	2.83518	0.984186	2.6354	0.887262	5.48883	1.10183	6.79305
0.98954	2.42145	0.990727	2.42164	0.644371	3.94129	0.881224	5.40241	1.14936	7.06117	1.33823	8.16831	0.462502	2.81948	0.98166	2.63884	0.888394	5.4472	1.10353	6.74352
0.985811	2.42088	0.986996	2.42106	0.645419	3.91316	0.883302	5.36765	1.15009	7.00356	1.33978	8.11545	0.464025	2.80409	0.979185	2.64244	0.889521	5.40626	1.10526	6.69502
