Sym0		Asym0		Sym1		Sym2		Sym3		Asym2		Asym3		Asym4	
469  Points		492  Points		196  Points		137  Points		119  Points		365  Points		151  Points		119  Points	
Freq (MHz)	Vgr (m/ms)	Freq (MHz)	Vgr (m/ms)	Freq (MHz)	Vgr (m/ms)	Freq (MHz)	Vgr (m/ms)	Freq (MHz)	Vgr (m/ms)	Freq (MHz)	Vgr (m/ms)	Freq (MHz)	Vgr (m/ms)	Freq (MHz)	Vgr (m/ms)
0.00717333	7.72617	0.000375824	0.507392	0.279513	0.113364	0.441224	0.0684904	0.559045	0.118105	0.13982	0.446873	0.419266	0.0846387	0.698791	0.0842085
0.0143718	7.72438	0.000848558	0.604492	0.279619	0.186999	0.441288	0.105258	0.559155	0.162475	0.140236	0.65089	0.419345	0.139812	0.69887	0.11598
0.0215669	7.71986	0.00150223	0.793475	0.279862	0.334005	0.44142	0.179013	0.559348	0.251202	0.141033	1.05457	0.419527	0.250109	0.699007	0.17958
0.0287569	7.71347	0.00232711	0.971124	0.280241	0.480214	0.441621	0.253208	0.559623	0.339811	0.142201	1.44781	0.419811	0.36018	0.699204	0.243132
0.03594	7.70515	0.00331181	1.13585	0.280757	0.625268	0.441892	0.327915	0.559981	0.428187	0.14373	1.82728	0.420198	0.469872	0.69946	0.30659
0.0431146	7.69496	0.00444363	1.28658	0.281407	0.768892	0.442232	0.403356	0.560421	0.516317	0.145606	2.19028	0.420687	0.5791	0.699776	0.36993
0.0502788	7.68277	0.00570921	1.42288	0.282189	0.910755	0.442643	0.479676	0.560943	0.604173	0.147812	2.53499	0.421277	0.687838	0.70015	0.433111
0.0574306	7.66852	0.00709501	1.5449	0.283104	1.05056	0.443126	0.557097	0.561547	0.691627	0.15033	2.86016	0.421969	0.795966	0.700583	0.49619
0.0645682	7.65217	0.00858795	1.65307	0.284147	1.18801	0.443681	0.635693	0.562232	0.778646	0.153141	3.1651	0.42276	0.903309	0.701074	0.559068
0.0716895	7.6336	0.0101753	1.74812	0.285317	1.32293	0.444311	0.715616	0.562998	0.865232	0.156228	3.44971	0.423652	1.00982	0.701624	0.621761
0.0787926	7.61273	0.0118454	1.83107	0.286612	1.45509	0.445015	0.797092	0.563844	0.951319	0.159569	3.71424	0.424642	1.11546	0.702233	0.684233
0.085875	7.58943	0.0135873	1.90293	0.288029	1.5842	0.445796	0.88021	0.564771	1.03685	0.163149	3.95934	0.42573	1.22011	0.702899	0.746409
0.0929346	7.56364	0.0153913	1.96477	0.289564	1.71022	0.446655	0.965074	0.565776	1.12177	0.166947	4.18588	0.426916	1.32363	0.703624	0.808358
0.099969	7.53514	0.0172484	2.01769	0.291216	1.83305	0.447594	1.05182	0.566861	1.20608	0.170949	4.39476	0.428197	1.42603	0.704406	0.870073
0.106976	7.50377	0.019151	2.06274	0.29298	1.95253	0.448615	1.14064	0.568024	1.28972	0.175136	4.58708	0.429573	1.52718	0.705245	0.931468
0.113951	7.46944	0.0210921	2.1009	0.294854	2.06866	0.44972	1.23156	0.569264	1.37264	0.179496	4.76392	0.431043	1.62702	0.706141	0.992513
0.120894	7.43192	0.0230658	2.13308	0.296835	2.18146	0.45091	1.32472	0.570582	1.45483	0.184013	4.92639	0.432605	1.72555	0.707094	1.05323
0.1278	7.39094	0.0250669	2.16007	0.298919	2.29096	0.452188	1.4202	0.571975	1.53631	0.188676	5.07545	0.434258	1.82263	0.708104	1.11357
0.134666	7.34632	0.0270909	2.1827	0.301104	2.39732	0.453556	1.51801	0.573444	1.61693	0.193471	5.21209	0.436001	1.91821	0.70917	1.17355
0.141489	7.29781	0.0288703	2.19926	0.303386	2.50063	0.455017	1.61826	0.574988	1.69674	0.198388	5.33735	0.437832	2.01233	0.710291	1.23314
0.148265	7.24517	0.0303969	2.21142	0.305763	2.6011	0.456572	1.72098	0.576606	1.7757	0.203417	5.45207	0.439751	2.10484	0.711467	1.29234
0.15499	7.18809	0.0316653	2.22021	0.308233	2.69908	0.458224	1.82616	0.578297	1.8538	0.208547	5.55693	0.441754	2.19574	0.712699	1.35113
0.161659	7.12623	0.0326715	2.2263	0.310793	2.79476	0.459975	1.93383	0.58006	1.93105	0.213771	5.65282	0.443842	2.28504	0.713985	1.40945
0.168269	7.05934	0.033413	2.23058	0.313441	2.88848	0.461827	2.04392	0.581895	2.00739	0.219081	5.74039	0.446012	2.3726	0.715325	1.46734
0.174813	6.987	0.0338883	2.23312	0.316175	2.9808	0.463783	2.15636	0.583801	2.08281	0.224468	5.82017	0.448263	2.45852	0.716719	1.52476
0.181288	6.90891	0.0345724	2.2364	0.318995	3.07204	0.465845	2.27109	0.585776	2.15733	0.229926	5.89293	0.450594	2.54274	0.718166	1.58167
0.187687	6.82471	0.0353172	2.23983	0.321899	3.16269	0.468015	2.38804	0.587821	2.23092	0.234735	5.95101	0.453001	2.6252	0.719667	1.63813
0.194005	6.73411	0.0363318	2.2441	0.324888	3.25337	0.470295	2.50703	0.589934	2.30354	0.23887	5.9968	0.455485	2.70597	0.721219	1.69407
0.200236	6.63677	0.0376176	2.2488	0.327962	3.34459	0.472687	2.62789	0.592113	2.37525	0.242313	6.0321	0.458044	2.78497	0.722823	1.74948
0.206372	6.53232	0.0391759	2.2537	0.331121	3.43685	0.475192	2.75052	0.59436	2.44602	0.245049	6.05842	0.460675	2.86225	0.724479	1.80442
0.212408	6.42061	0.0410078	2.25849	0.334366	3.5307	0.477812	2.87464	0.596671	2.51585	0.247068	6.07717	0.463377	2.93779	0.726186	1.85885
0.218336	6.30142	0.0431143	2.26286	0.3377	3.62671	0.480548	3.00006	0.599048	2.58476	0.248363	6.08866	0.466149	3.01158	0.727943	1.91271
0.22415	6.17466	0.0452244	2.26623	0.341124	3.72534	0.483402	3.12652	0.601488	2.65271	0.25023	6.10453	0.468989	3.08374	0.72975	1.96601
0.229842	6.04037	0.0473372	2.26871	0.344641	3.82695	0.486374	3.25377	0.603991	2.71976	0.252264	6.1213	0.471895	3.15415	0.731606	2.01877
0.235406	5.89865	0.0494519	2.27051	0.348255	3.93188	0.489465	3.38154	0.606556	2.78589	0.255039	6.14295	0.474866	3.22291	0.733511	2.07098
0.240834	5.74976	0.051568	2.27169	0.351968	4.04029	0.492675	3.50952	0.609182	2.85114	0.258562	6.16873	0.477901	3.2901	0.735465	2.12265
0.24612	5.59421	0.0536849	2.2724	0.355784	4.15216	0.496005	3.63743	0.611868	2.91549	0.262842	6.19754	0.480997	3.35564	0.737467	2.17379
0.251258	5.4326	0.0558024	2.27268	0.359705	4.26742	0.499453	3.76502	0.614614	2.97893	0.267887	6.2282	0.484154	3.41956	0.739516	2.22435
0.256243	5.26569	0.0579198	2.27263	0.363735	4.38581	0.503021	3.89201	0.617419	3.04158	0.273705	6.25945	0.487369	3.482	0.741612	2.27434
0.26107	5.09445	0.0600372	2.27239	0.367878	4.50673	0.506706	4.01804	0.620282	3.10338	0.279551	6.28676	0.490642	3.543	0.743754	2.32379
0.265736	4.91992	0.0621542	2.27194	0.372133	4.62954	0.510508	4.14289	0.623202	3.16435	0.28542	6.31023	0.493971	3.60253	0.745942	2.37267
0.270237	4.74334	0.0642707	2.27128	0.375936	4.73758	0.514426	4.26631	0.626179	3.22455	0.291309	6.32998	0.497355	3.66065	0.748175	2.42099
0.274574	4.56598	0.0663865	2.27047	0.379247	4.82996	0.518458	4.38797	0.629211	3.28403	0.297215	6.34623	0.500792	3.71749	0.750453	2.46877
0.278746	4.38907	0.0685015	2.26963	0.382033	4.90634	0.522602	4.50775	0.632298	3.34277	0.303135	6.35911	0.504282	3.77302	0.752775	2.516
0.282753	4.2139	0.0706157	2.26869	0.384267	4.96639	0.526857	4.62535	0.63544	3.40077	0.309065	6.36878	0.507823	3.82731	0.755141	2.56271
0.286598	4.04161	0.0727289	2.26768	0.385927	5.01039	0.531221	4.74058	0.638635	3.45819	0.315002	6.37533	0.511414	3.88052	0.757551	2.60887
0.290284	3.87333	0.0748412	2.26665	0.386997	5.03842	0.535691	4.85335	0.641884	3.51502	0.320944	6.37883	0.515054	3.93259	0.760003	2.65447
0.293815	3.71005	0.0769526	2.26563	0.388545	5.07853	0.540265	4.96337	0.645185	3.57126	0.326889	6.37937	0.518742	3.98365	0.762497	2.69954
0.297197	3.55246	0.079063	2.26461	0.390242	5.12186	0.54494	5.07049	0.648538	3.62697	0.332832	6.37708	0.522477	4.03375	0.765033	2.74411
0.300435	3.4012	0.0811724	2.26355	0.392573	5.18003	0.549713	5.1747	0.651943	3.68222	0.338772	6.37201	0.526258	4.08298	0.76761	2.7882
0.303535	3.2568	0.0832808	2.2625	0.395559	5.25257	0.554582	5.27583	0.6554	3.73712	0.344705	6.36417	0.530085	4.13141	0.770228	2.83178
0.306504	3.11956	0.0853883	2.26147	0.399225	5.33831	0.559544	5.37373	0.658907	3.79163	0.35063	6.35366	0.533957	4.17906	0.772887	2.87486
0.309348	2.98957	0.0874948	2.26047	0.403599	5.43578	0.564595	5.46837	0.662465	3.84585	0.356545	6.34049	0.537872	4.22609	0.775585	2.91744
0.312074	2.86693	0.0896005	2.2595	0.408715	5.5429	0.569734	5.55967	0.666073	3.89989	0.362445	6.32464	0.541831	4.27253	0.778323	2.95959
0.31469	2.75157	0.0917052	2.25854	0.413928	5.64448	0.574955	5.64747	0.669732	3.95377	0.36833	6.30624	0.545834	4.31841	0.7811	3.00128
0.317202	2.64332	0.093809	2.25765	0.419232	5.73987	0.580257	5.73182	0.673441	4.00769	0.374196	6.28525	0.549878	4.36386	0.783916	3.04246
0.319616	2.54202	0.0959121	2.25674	0.424623	5.82876	0.585636	5.81264	0.6772	4.06162	0.380042	6.26168	0.553965	4.40893	0.78677	3.08329
0.321938	2.44738	0.0980142	2.25584	0.430094	5.91097	0.591088	5.88982	0.681009	4.11566	0.385864	6.23562	0.558094	4.45365	0.789661	3.12366
0.324176	2.35912	0.100116	2.25502	0.435638	5.98635	0.596611	5.96332	0.684869	4.16997	0.391661	6.20698	0.562264	4.49812	0.79259	3.16358
0.326334	2.27692	0.102216	2.25425	0.441249	6.05498	0.6022	6.03312	0.688779	4.22469	0.39743	6.17578	0.566476	4.54239	0.795556	3.20316
0.328419	2.2004	0.104316	2.25346	0.44692	6.11691	0.607853	6.09911	0.692741	4.27992	0.403169	6.14213	0.570179	4.58083	0.798559	3.24231
0.330435	2.12927	0.106415	2.2527	0.452647	6.1723	0.613565	6.16122	0.696755	4.33575	0.408875	6.10597	0.573361	4.61353	0.801598	3.28107
0.332386	2.06324	0.108514	2.25202	0.458422	6.22149	0.619334	6.21945	0.70082	4.39232	0.414547	6.06723	0.576009	4.64055	0.804673	3.31947
0.334279	2.00201	0.110612	2.25132	0.46424	6.26473	0.625154	6.27366	0.704939	4.44989	0.420181	6.02607	0.578114	4.66191	0.807783	3.35754
0.336117	1.94517	0.112709	2.25064	0.470095	6.30224	0.631024	6.32377	0.709112	4.50862	0.425776	5.9825	0.579668	4.67746	0.810929	3.39522
0.337904	1.89243	0.114805	2.25001	0.475983	6.3344	0.636938	6.36965	0.71334	4.56859	0.431329	5.93646	0.580665	4.68745	0.81411	3.43257
0.339643	1.84363	0.116902	2.2494	0.481899	6.3615	0.642893	6.41124	0.717625	4.63001	0.436838	5.888	0.582102	4.70194	0.817325	3.46962
0.341339	1.79841	0.118997	2.24884	0.487837	6.38388	0.648885	6.44857	0.721968	4.69315	0.4423	5.83714	0.583669	4.71761	0.820575	3.50629
0.342994	1.75654	0.121092	2.24826	0.493795	6.40184	0.654133	6.47743	0.72637	4.7582	0.447715	5.78399	0.585809	4.7389	0.823859	3.54265
0.344612	1.71782	0.123186	2.24772	0.499767	6.41562	0.658624	6.49928	0.730834	4.82532	0.453078	5.72856	0.588529	4.7658	0.827177	3.57874
0.346195	1.682	0.12528	2.24723	0.505749	6.42555	0.662349	6.51538	0.735362	4.89481	0.458389	5.67092	0.591839	4.79835	0.830528	3.61445
0.347747	1.64889	0.127374	2.24673	0.51174	6.43187	0.6653	6.52677	0.739955	4.96685	0.463645	5.61112	0.59575	4.83647	0.833912	3.64991
0.349268	1.61825	0.129467	2.24626	0.517734	6.43485	0.667473	6.53437	0.744617	5.04163	0.468845	5.54925	0.600277	4.88018	0.837329	3.68508
0.350762	1.59	0.131559	2.2458	0.52373	6.43472	0.668865	6.53891	0.74935	5.11943	0.473986	5.48547	0.604844	4.92387	0.840778	3.71991
0.352231	1.5639	0.133652	2.24535	0.529725	6.43166	0.670868	6.54493	0.754156	5.20031	0.479066	5.41977	0.609452	4.96746	0.84426	3.75448
0.353676	1.53983	0.135743	2.24495	0.535715	6.42584	0.673046	6.55084	0.75904	5.28443	0.484085	5.35232	0.6141	5.0109	0.847774	3.78876
0.3551	1.51768	0.137835	2.24456	0.541699	6.41748	0.676013	6.55784	0.764003	5.37197	0.48904	5.28325	0.618789	5.05422	0.85132	3.82274
0.356504	1.49727	0.139926	2.24418	0.547673	6.4067	0.679768	6.56482	0.76905	5.46282	0.49393	5.21265	0.623518	5.09727	0.854898	3.85644
0.35789	1.4785	0.142017	2.24381	0.553637	6.3937	0.684314	6.57071	0.773518	5.5446	0.498753	5.14069	0.628287	5.14	0.858506	3.88984
0.359259	1.46124	0.144107	2.24344	0.559587	6.37859	0.689651	6.57388	0.77738	5.61629	0.503509	5.06757	0.633096	5.18239	0.862146	3.92295
0.360613	1.4454	0.146197	2.24308	0.565523	6.36144	0.695777	6.57253	0.780612	5.67685	0.508196	4.99337	0.637944	5.22427	0.865816	3.95579
0.361953	1.43093	0.148287	2.24278	0.571441	6.34243	0.701898	6.56588	0.783192	5.72555	0.512813	4.91822	0.642831	5.26561	0.869517	3.98834
0.363279	1.41766	0.150376	2.24245	0.577341	6.32164	0.708011	6.55384	0.785103	5.76177	0.51736	4.84234	0.647756	5.30631	0.873248	4.02057
0.364426	1.40699	0.152465	2.24214	0.583221	6.29913	0.714111	6.53647	0.786332	5.78518	0.521837	4.76587	0.652719	5.34629	0.877009	4.0525
0.365397	1.39862	0.154554	2.24188	0.589079	6.27498	0.720191	6.51387	0.788108	5.819	0.526241	4.68904	0.657718	5.3854	0.8808	4.08415
0.366195	1.39208	0.156643	2.2416	0.594914	6.24929	0.726249	6.48631	0.790051	5.85602	0.530574	4.61195	0.662754	5.42352	0.884619	4.1155
0.366824	1.38716	0.158731	2.24131	0.600724	6.22212	0.732278	6.45414	0.792712	5.90699	0.534835	4.53474	0.667824	5.46063	0.888468	4.14656
0.367285	1.38372	0.160819	2.24106	0.606508	6.19352	0.738275	6.41777	0.796112	5.972	0.539024	4.4576	0.672929	5.49662	0.892346	4.17727
0.367579	1.38155	0.162907	2.24082	0.612265	6.16355	0.744237	6.37776	0.800272	6.05137	0.543141	4.38066	0.678067	5.53139	0.895748	4.20382
0.368002	1.37861	0.164995	2.24056	0.617993	6.13223	0.750159	6.33469	0.805223	6.14523	0.547187	4.30406	0.683236	5.56481	0.898666	4.22625
0.36846	1.37556	0.167082	2.24031	0.623691	6.09965	0.756041	6.28927	0.810999	6.25335	0.551161	4.22794	0.688436	5.59683	0.90109	4.24467
0.369082	1.37146	0.169169	2.24008	0.629359	6.06586	0.761879	6.24228	0.816876	6.36128	0.555065	4.15245	0.693665	5.62745	0.903014	4.25917
0.369865	1.36661	0.171256	2.23989	0.634994	6.03083	0.767673	6.19447	0.822853	6.46831	0.558899	4.07771	0.698922	5.65653	0.904433	4.26984
0.370809	1.36114	0.173343	2.23969	0.640597	5.99464	0.773422	6.14662	0.828929	6.57375	0.562664	4.0038	0.704205	5.68396	0.905343	4.27661
0.371912	1.35525	0.17543	2.23948	0.646165	5.95739	0.779126	6.09944	0.835102	6.6769	0.56636	3.93077	0.709514	5.7098	0.906654	4.28624
0.373171	1.34926	0.177516	2.2393	0.651698	5.91907	0.784787	6.05362	0.84137	6.77718	0.569988	3.85881	0.714845	5.73396	0.908082	4.29671
0.374426	1.34388	0.179602	2.2391	0.657194	5.87965	0.790406	6.00968	0.847731	6.87408	0.57355	3.78793	0.720198	5.75637	0.910029	4.31098
0.375675	1.33914	0.181688	2.23889	0.662654	5.83926	0.795986	5.96813	0.854179	6.96718	0.577047	3.71821	0.725571	5.77709	0.912502	4.32886
0.376921	1.33505	0.183774	2.23875	0.668075	5.79789	0.801527	5.92937	0.860713	7.0562	0.580479	3.64973	0.730963	5.79606	0.915505	4.35024
0.378163	1.3315	0.18586	2.23857	0.673458	5.75556	0.807034	5.89365	0.867328	7.14093	0.583847	3.5825	0.736372	5.81324	0.919047	4.37518
0.379402	1.32848	0.187946	2.2384	0.6788	5.71236	0.812509	5.86111	0.87402	7.22119	0.587154	3.51658	0.741795	5.82864	0.923137	4.40353
0.380639	1.32595	0.190031	2.23825	0.684102	5.66834	0.817956	5.83188	0.880784	7.29699	0.5904	3.45202	0.747233	5.84223	0.927253	4.43155
0.381873	1.32391	0.192116	2.23806	0.689362	5.62348	0.823377	5.80591	0.887617	7.3684	0.593587	3.38886	0.752682	5.85408	0.931395	4.45922
0.383106	1.32231	0.194202	2.23793	0.694581	5.57783	0.828775	5.78315	0.894514	7.43545	0.596715	3.32707	0.758141	5.86422	0.935562	4.48664
0.384337	1.3211	0.196287	2.23779	0.699756	5.53146	0.834153	5.76349	0.901472	7.49831	0.599786	3.26674	0.763609	5.87255	0.939755	4.51375
0.385567	1.32032	0.198371	2.23765	0.704888	5.4844	0.839514	5.74681	0.908486	7.5571	0.602802	3.20778	0.769084	5.87913	0.943973	4.54049
0.386797	1.31989	0.200456	2.23751	0.709976	5.4367	0.844861	5.73287	0.915554	7.61198	0.605764	3.15022	0.774564	5.88407	0.948216	4.56697
0.388027	1.31978	0.202541	2.2374	0.715019	5.38838	0.850197	5.72147	0.92267	7.66323	0.608672	3.09412	0.780048	5.88731	0.952483	4.59318
0.389256	1.31999	0.204625	2.23727	0.720016	5.33954	0.855523	5.71243	0.929833	7.71093	0.611529	3.03944	0.785535	5.88889	0.956775	4.61906
0.390486	1.32053	0.20671	2.23713	0.724968	5.29022	0.860841	5.70554	0.937039	7.75533	0.614336	2.98614	0.791022	5.8888	0.96109	4.64464
0.391717	1.32135	0.208794	2.23699	0.729874	5.2404	0.866154	5.70059	0.944284	7.7966	0.617094	2.93426	0.796508	5.88715	0.96543	4.66995
0.392949	1.32238	0.210878	2.23688	0.734733	5.19019	0.871464	5.69734	0.951567	7.83493	0.619804	2.88374	0.801992	5.88394	0.969792	4.69498
0.394181	1.32366	0.212962	2.23679	0.739545	5.13966	0.876771	5.69561	0.958884	7.87043	0.622467	2.83457	0.807472	5.87915	0.974178	4.7197
0.395415	1.32522	0.215046	2.23664	0.74431	5.0888	0.882077	5.69515	0.966233	7.90323	0.625085	2.78681	0.812947	5.87291	0.978587	4.74417
0.396651	1.32703	0.21713	2.23656	0.749028	5.0377	0.887383	5.69587	0.973611	7.93354	0.62766	2.74033	0.818415	5.86517	0.983018	4.76839
0.397888	1.32899	0.219214	2.23645	0.753698	4.98641	0.89269	5.69755	0.981016	7.96141	0.630192	2.69515	0.823876	5.856	0.987472	4.79232
0.399127	1.33115	0.221297	2.23632	0.758319	4.93494	0.898	5.7	0.988446	7.98695	0.632682	2.65129	0.829327	5.84544	0.991948	4.81601
0.400368	1.33347	0.223381	2.23625	0.762893	4.88343	0.903312	5.70313	0.995899	8.01027	0.635132	2.60863	0.834768	5.83349	0.996446	4.83939
0.401612	1.33598	0.225464	2.23615	0.767419	4.83182	0.908627	5.70674	1.00337	8.02136	0.637543	2.56723	0.840197	5.82023	1.00097	4.85099
0.402858	1.33867	0.227548	2.23606	0.771897	4.78016	0.913946	5.71071			0.639916	2.52705	0.845614	5.80569		
0.404106	1.34144	0.229631	2.23598	0.776326	4.72858	0.919268	5.71493			0.642252	2.48803	0.851016	5.78989		
0.405357	1.3444	0.231714	2.23586	0.780708	4.67712	0.924595	5.71935			0.644552	2.45017	0.856402	5.77284		
0.406611	1.34753	0.233797	2.23577	0.785042	4.62576	0.929926	5.72375			0.646817	2.41344	0.861773	5.75464		
0.407868	1.35071	0.23588	2.23572	0.789328	4.57452	0.93526	5.72804			0.649049	2.37779	0.867126	5.73525		
0.409128	1.35401	0.237963	2.23563	0.793566	4.52352	0.940599	5.73227			0.651248	2.34327	0.87246	5.71475		
0.410391	1.35743	0.240046	2.23554	0.797757	4.47278	0.945942	5.73626			0.653416	2.30978	0.877774	5.69319		
0.411658	1.36093	0.242129	2.23546	0.8019	4.4223	0.951288	5.7399			0.655552	2.27729	0.883068	5.67058		
0.412927	1.36455	0.244212	2.23539	0.805997	4.37211	0.956637	5.74318			0.657659	2.24581	0.888341	5.64697		
0.4142	1.36826	0.246294	2.23531	0.810047	4.32226	0.96199	5.74603			0.659737	2.21532	0.893591	5.62234		
0.415477	1.37202	0.248377	2.23524	0.814051	4.27277	0.967345	5.74845			0.661787	2.18578	0.898818	5.59681		
0.416757	1.37584	0.250459	2.23516	0.818009	4.2237	0.972701	5.75031			0.66381	2.1571	0.90402	5.57039		
0.418041	1.37977	0.252542	2.23509	0.821922	4.17504	0.97806	5.75161			0.665807	2.12939	0.909197	5.54308		
0.419328	1.38374	0.254624	2.23505	0.825789	4.12683	0.983419	5.7523			0.667778	2.10254	0.914349	5.51495		
0.420619	1.38778	0.256707	2.23496	0.829612	4.07907	0.988778	5.75235			0.669725	2.07652	0.919474	5.4861		
0.421914	1.39185	0.258789	2.23488	0.83339	4.03171	0.994138	5.75175			0.671647	2.05138	0.924572	5.45644		
0.423213	1.39597	0.260871	2.23484	0.837124	3.98493	0.999496	5.75039			0.673547	2.02699	0.929641	5.42604		
0.424515	1.40016	0.262953	2.23478	0.840815	3.93864	1.00485	5.74952			0.675424	2.00336	0.934682	5.39502		
0.425822	1.40438	0.265035	2.23468	0.844463	3.89284					0.67728	1.98053	0.939694	5.36337		
0.427132	1.40865	0.267117	2.23463	0.848069	3.84759					0.679115	1.95845	0.944676	5.33106		
0.428447	1.41294	0.269199	2.2346	0.851633	3.80289					0.680929	1.93709	0.949628	5.29824		
0.429765	1.41721	0.271281	2.23455	0.855155	3.75871					0.682724	1.91641	0.954549	5.26491		
0.431087	1.42154	0.273363	2.23449	0.858637	3.71509					0.6845	1.8964	0.959439	5.23104		
0.432414	1.42595	0.275445	2.23443	0.862078	3.67204					0.686258	1.87706	0.964297	5.19674		
0.433745	1.43034	0.277527	2.23436	0.865479	3.62956					0.687998	1.85834	0.969122	5.16205		
0.435079	1.43474	0.279609	2.23432	0.868841	3.58764					0.689721	1.84023	0.973916	5.12694		
0.436418	1.43913	0.28169	2.2343	0.872164	3.54627					0.691427	1.82279	0.978676	5.09152		
0.437761	1.44357	0.283772	2.23422	0.875449	3.50553					0.693118	1.8059	0.983403	5.05583		
0.439108	1.44805	0.285853	2.23414	0.878697	3.46534					0.694792	1.78955	0.988097	5.01985		
0.440459	1.45249	0.287935	2.23414	0.881907	3.42569					0.696452	1.77376	0.992757	4.98359		
0.441815	1.45695	0.290017	2.2341	0.88508	3.38664					0.698098	1.75853	0.997383	4.94711		
0.443174	1.46144	0.292098	2.23401	0.888217	3.34818					0.699729	1.74382	1.00198	4.92885		
0.444538	1.46589	0.294179	2.23397	0.891319	3.31027					0.701347	1.72958				
0.445906	1.47035	0.296261	2.23394	0.894386	3.27297					0.702952	1.71583				
0.447278	1.47485	0.298342	2.23393	0.897418	3.2362					0.704544	1.70258				
0.448654	1.47933	0.300423	2.23385	0.900416	3.19997					0.706124	1.6898				
0.450034	1.48377	0.302505	2.23381	0.903381	3.16436					0.707693	1.67741				
