Sym0		Asym0		Sym1		Sym2		Sym3		Asym1		Asym2		Asym3		Asym4	
349  Points		387  Points		350  Points		320  Points		246  Points		346  Points		314  Points		249  Points		143  Points	
Freq (MHz)	Vgr (m/ms)	Freq (MHz)	Vgr (m/ms)	Freq (MHz)	Vgr (m/ms)	Freq (MHz)	Vgr (m/ms)	Freq (MHz)	Vgr (m/ms)	Freq (MHz)	Vgr (m/ms)	Freq (MHz)	Vgr (m/ms)	Freq (MHz)	Vgr (m/ms)	Freq (MHz)	Vgr (m/ms)
0.353492	-0.159655	0.000152782	0.197464	1.00116	2.13282	0.384655	0.147711	0.707108	0.00642894	0.176788	0.0840836	0.53033	0.000798031	0.769254	0.0107654	0.883887	0.0114749
0.353304	-0.210888	0.000385496	0.241964	0.99865	2.13053	0.384829	0.213713	0.707116	0.00921994	0.176887	0.127325	0.530331	0.00155661	0.769267	0.0182874	0.883901	0.0156712
0.352995	-0.309581	0.000723097	0.33042	0.996141	2.12592	0.385158	0.34243	0.70713	0.0147365	0.177088	0.213468	0.530334	0.00309991	0.769297	0.0333094	0.883924	0.0240856
0.352574	-0.399888	0.0011643	0.417793	0.993639	2.1213	0.385636	0.463487	0.707151	0.0202764	0.17739	0.298817	0.530338	0.00464844	0.769345	0.0482656	0.883957	0.0324914
0.352052	-0.480381	0.00170784	0.503806	0.991141	2.11669	0.386251	0.575157	0.707178	0.0258631	0.177792	0.383163	0.530345	0.00620741	0.769411	0.0631631	0.884001	0.0409533
0.351442	-0.550545	0.00235179	0.588162	0.98865	2.11209	0.386992	0.676696	0.707212	0.0313968	0.178293	0.466161	0.530353	0.00778726	0.769494	0.0780901	0.884054	0.0494545
0.350754	-0.610527	0.00309416	0.670667	0.986163	2.10749	0.387846	0.767932	0.707252	0.0369711	0.178891	0.547563	0.530363	0.00940888	0.769595	0.0929295	0.884117	0.0578874
0.350003	-0.660838	0.00393256	0.751082	0.983682	2.1029	0.388802	0.849257	0.707299	0.0425532	0.179584	0.627163	0.530375	0.011114	0.769713	0.10774	0.88419	0.0664036
0.349197	-0.702353	0.00486447	0.829294	0.981207	2.09834	0.389848	0.921453	0.707352	0.048151	0.180369	0.704697	0.530389	0.0128398	0.769849	0.122493	0.884274	0.0749399
0.348347	-0.735944	0.00588723	0.905153	0.978736	2.09377	0.390973	0.985351	0.707412	0.0537803	0.181245	0.780079	0.530405	0.0146066	0.770002	0.137131	0.884367	0.0834432
0.347462	-0.76255	0.00699794	0.978576	0.976272	2.08924	0.39217	1.04196	0.707479	0.0593991	0.182208	0.853133	0.530424	0.0164558	0.770172	0.151758	0.88447	0.0920269
0.34655	-0.783169	0.00819375	1.04947	0.973812	2.08473	0.393429	1.09225	0.707552	0.0650704	0.183256	0.923727	0.530444	0.0183964	0.77036	0.166291	0.884584	0.100625
0.345616	-0.798553	0.00947156	1.11772	0.971358	2.08024	0.394745	1.13703	0.707632	0.0707734	0.184385	0.991748	0.530467	0.0203733	0.770564	0.180707	0.884708	0.109252
0.344668	-0.809399	0.0108282	1.18332	0.968909	2.0758	0.396109	1.177	0.707719	0.0764665	0.185593	1.05718	0.530492	0.0224227	0.770786	0.195039	0.884841	0.117936
0.343709	-0.81637	0.0122607	1.24633	0.966465	2.07132	0.397519	1.21293	0.707812	0.0822131	0.186877	1.12001	0.53052	0.0246173	0.771024	0.209273	0.884986	0.126662
0.342743	-0.819985	0.0137659	1.30674	0.964027	2.06689	0.398968	1.24531	0.707913	0.0879932	0.188233	1.18019	0.53055	0.0268824	0.771279	0.223386	0.88514	0.135399
0.341776	-0.820695	0.0153407	1.36456	0.961593	2.06252	0.400454	1.2747	0.70802	0.0937674	0.189659	1.2377	0.530583	0.0292153	0.77155	0.237404	0.885305	0.144156
0.340809	-0.818894	0.0169822	1.41977	0.959165	2.05815	0.401973	1.30146	0.708134	0.0996029	0.19115	1.2926	0.530619	0.031684	0.771838	0.251229	0.88548	0.153027
0.339846	-0.814925	0.0186871	1.47248	0.956742	2.05382	0.403522	1.32591	0.708255	0.105488	0.192502	1.33847	0.530658	0.0342775	0.772143	0.264965	0.885665	0.161908
0.338888	-0.809037	0.0204529	1.52283	0.954324	2.04954	0.405098	1.34844	0.708382	0.111398	0.193691	1.37601	0.5307	0.0369743	0.772463	0.278593	0.885861	0.170807
0.337939	-0.801437	0.0222765	1.5708	0.951911	2.04531	0.4067	1.36918	0.708517	0.11736	0.194698	1.40597	0.530745	0.0398044	0.772799	0.292006	0.886068	0.179816
0.336999	-0.792315	0.0241552	1.61648	0.949504	2.0411	0.408325	1.38841	0.708659	0.12335	0.195509	1.42899	0.530794	0.0427547	0.773151	0.305283	0.886285	0.188898
0.336071	-0.781909	0.0260865	1.65994	0.947101	2.03692	0.409972	1.40635	0.708808	0.129398	0.196114	1.4456	0.530846	0.045872	0.773519	0.318433	0.886513	0.19798
0.335156	-0.770326	0.0280678	1.7013	0.944702	2.03281	0.41164	1.42303	0.708964	0.135488	0.196505	1.4561	0.530902	0.0491038	0.773902	0.331402	0.886752	0.207135
0.334256	-0.757632	0.0300965	1.74067	0.942309	2.02877	0.413326	1.43861	0.709127	0.14159	0.197072	1.47086	0.530962	0.0524911	0.7743	0.344158	0.887001	0.216365
0.33337	-0.743964	0.0321705	1.77809	0.939921	2.02478	0.415031	1.45328	0.709298	0.147787	0.197694	1.48654	0.531026	0.0560432	0.774713	0.35678	0.887262	0.225667
0.332502	-0.729444	0.0342875	1.81369	0.937537	2.02084	0.416752	1.46711	0.709476	0.154028	0.198551	1.50751	0.531094	0.0597049	0.775141	0.369206	0.887533	0.235045
0.331651	-0.714101	0.0364454	1.84752	0.935157	2.01692	0.418489	1.4801	0.709661	0.160286	0.199652	1.53323	0.531166	0.063586	0.775583	0.38146	0.887816	0.244425
0.330819	-0.697991	0.0386422	1.87967	0.932783	2.0131	0.420241	1.49239	0.709853	0.166648	0.201008	1.5632	0.531244	0.0676129	0.77604	0.393516	0.888109	0.253955
0.330006	-0.681224	0.0408759	1.91028	0.930413	2.00935	0.422006	1.50401	0.710054	0.173074	0.202631	1.59686	0.531326	0.0717847	0.776511	0.405325	0.888414	0.263569
0.329213	-0.663803	0.0431448	1.93935	0.928047	2.00566	0.423786	1.51502	0.710261	0.179554	0.204535	1.63352	0.531413	0.0761734	0.776995	0.417003	0.888731	0.273201
0.328441	-0.645807	0.045447	1.96694	0.925685	2.00207	0.425577	1.52546	0.710477	0.186069	0.206481	1.66825	0.531505	0.0807026	0.777494	0.428422	0.889058	0.282944
0.327691	-0.627248	0.0477809	1.99326	0.923328	1.99857	0.427381	1.53537	0.7107	0.192654	0.208467	1.70107	0.531603	0.0854397	0.778005	0.439614	0.889398	0.292763
0.326963	-0.608146	0.0501451	2.01828	0.920974	1.99515	0.429196	1.54485	0.710931	0.199305	0.21049	1.73206	0.531707	0.0903729	0.77853	0.450645	0.889748	0.302658
0.326258	-0.588546	0.052538	2.04204	0.918625	1.99182	0.431022	1.55384	0.71117	0.206014	0.212549	1.76132	0.531816	0.0954787	0.779067	0.461428	0.890111	0.312634
0.325576	-0.568463	0.0549583	2.06473	0.91628	1.98854	0.432859	1.56238	0.711416	0.212842	0.214642	1.78884	0.531932	0.100783	0.779617	0.472009	0.890485	0.322699
0.324918	-0.547999	0.0574046	2.0863	0.913938	1.98542	0.434705	1.57053	0.711671	0.219686	0.216766	1.81484	0.532054	0.106264	0.78018	0.482329	0.890872	0.332867
0.324284	-0.527066	0.0598757	2.10682	0.9116	1.9824	0.43656	1.57826	0.711934	0.226635	0.21892	1.83933	0.532182	0.111954	0.780754	0.492422	0.89127	0.343097
0.323675	-0.505707	0.0623705	2.12639	0.909266	1.97943	0.438425	1.58567	0.712206	0.233648	0.221101	1.86234	0.532317	0.11784	0.78134	0.502283	0.89168	0.353449
0.323092	-0.48401	0.0648877	2.14503	0.906934	1.97665	0.440298	1.59272	0.712485	0.240717	0.223309	1.88407	0.53246	0.123972	0.781938	0.511896	0.892103	0.363899
0.322535	-0.46193	0.0674263	2.16281	0.904607	1.97395	0.442179	1.59941	0.712773	0.247897	0.225542	1.90445	0.53261	0.130304	0.782547	0.521307	0.892538	0.374399
0.322003	-0.43945	0.0699855	2.17978	0.902282	1.9714	0.444068	1.60584	0.713069	0.255152	0.227798	1.92362	0.532767	0.136815	0.783167	0.530462	0.892985	0.384999
0.321499	-0.416608	0.0725641	2.19599	0.89996	1.96901	0.44572	1.61112	0.713374	0.262485	0.230076	1.94166	0.532932	0.143538	0.783797	0.539397	0.893445	0.395724
0.321021	-0.393482	0.0751615	2.21143	0.897641	1.96673	0.447132	1.61544	0.713688	0.269899	0.232374	1.95855	0.533105	0.150466	0.784438	0.548039	0.893918	0.406554
0.320571	-0.37001	0.0777765	2.22618	0.895324	1.96465	0.448303	1.61902	0.71401	0.277403	0.234692	1.97443	0.533287	0.157657	0.785089	0.556459	0.894404	0.417449
0.320149	-0.34621	0.0804086	2.24032	0.89301	1.96269	0.44923	1.62169	0.714342	0.285013	0.237028	1.9893	0.533477	0.165081	0.78575	0.564658	0.894902	0.428397
0.319755	-0.322121	0.083057	2.25378	0.890698	1.96089	0.449913	1.62344	0.714682	0.29269	0.239381	2.00321	0.533676	0.172678	0.78642	0.57256	0.895413	0.439528
0.31939	-0.297746	0.0857209	2.26666	0.888388	1.95926	0.450351	1.62467	0.715032	0.300427	0.24175	2.01624	0.533884	0.180474	0.787099	0.580233	0.895938	0.450729
0.319054	-0.273019	0.0883996	2.279	0.88608	1.95785	0.45098	1.62645	0.71539	0.308284	0.244133	2.0284	0.534101	0.188523	0.787788	0.587669	0.896476	0.462
0.318746	-0.248028	0.0910925	2.2908	0.883774	1.95663	0.451665	1.62828	0.715758	0.316234	0.246531	2.03979	0.534328	0.196856	0.788485	0.594851	0.897027	0.473408
0.318469	-0.222803	0.093799	2.30209	0.881468	1.95559	0.452598	1.63079	0.716136	0.324298	0.248941	2.05039	0.534534	0.204251	0.78919	0.601818	0.897592	0.484871
0.318221	-0.197255	0.0965186	2.31295	0.879164	1.95481	0.45378	1.63369	0.716523	0.332441	0.251364	2.06023	0.534716	0.210623	0.789903	0.6085	0.89817	0.496445
0.318004	-0.171427	0.0992507	2.32333	0.876861	1.95422	0.455212	1.63716	0.716919	0.34067	0.253797	2.06937	0.53487	0.216105	0.790624	0.614906	0.898762	0.508094
0.317817	-0.145332	0.101995	2.33323	0.874558	1.95384	0.456895	1.64108	0.717326	0.348999	0.256241	2.07789	0.534995	0.22048	0.791352	0.621127	0.899367	0.519894
0.317661	-0.118998	0.10475	2.34279	0.872256	1.95375	0.458832	1.6453	0.717742	0.357454	0.258695	2.08577	0.535089	0.223679	0.792088	0.627124	0.899987	0.531774
0.317537	-0.0924025	0.107517	2.35195	0.869953	1.95392	0.460773	1.64927	0.718168	0.366014	0.261157	2.09298	0.535149	0.225739	0.79283	0.632819	0.900621	0.543669
0.317444	-0.0655066	0.110294	2.36075	0.86765	1.95434	0.462719	1.65302	0.718605	0.374637	0.263628	2.09965	0.535237	0.22873	0.79358	0.638275	0.901269	0.55574
0.317382	-0.0383748	0.113081	2.36918	0.865347	1.95503	0.464669	1.65651	0.719051	0.383389	0.266106	2.10578	0.535334	0.232062	0.794335	0.643549	0.901931	0.567871
0.317355	-0.0145639	0.115878	2.37726	0.863042	1.95604	0.466623	1.65982	0.719508	0.392249	0.268591	2.11133	0.535468	0.236646	0.795096	0.648529	0.902607	0.580048
0.317351	0.00589696	0.118684	2.38508	0.860736	1.95733	0.468581	1.66287	0.719976	0.401181	0.271083	2.11641	0.535642	0.242482	0.795864	0.65329	0.903298	0.59239
0.317362	0.0229667	0.1215	2.39257	0.858429	1.95896	0.470543	1.66568	0.720454	0.410255	0.27358	2.121	0.535857	0.249648	0.796636	0.657832	0.904003	0.604769
0.317379	0.0365878	0.124324	2.39979	0.856119	1.96089	0.472507	1.66833	0.720943	0.419467	0.276082	2.12513	0.536118	0.258246	0.797414	0.662154	0.904723	0.617222
0.317396	0.0465521	0.127156	2.4067	0.853807	1.96316	0.474475	1.67068	0.721443	0.428736	0.278589	2.12877	0.536428	0.268323	0.798197	0.666257	0.905458	0.629751
0.31741	0.0529253	0.129996	2.41334	0.851492	1.96578	0.476445	1.67288	0.721953	0.438119	0.2811	2.13198	0.53675	0.278599	0.798984	0.670141	0.906208	0.642356
0.317432	0.0621637	0.132844	2.41979	0.849173	1.96876	0.478418	1.67486	0.722475	0.447657	0.283614	2.13479	0.537085	0.28912	0.799776	0.673809	0.906972	0.655044
0.31746	0.0722362	0.1357	2.42597	0.846851	1.97216	0.480393	1.67658	0.722939	0.456035	0.286131	2.13719	0.537432	0.29991	0.800573	0.677263	0.907752	0.667748
0.317506	0.0860653	0.138562	2.43188	0.844525	1.97596	0.48237	1.67817	0.723342	0.463213	0.288651	2.13923	0.537792	0.310872	0.801373	0.680508	0.908546	0.680558
0.317574	0.103645	0.141432	2.43763	0.842194	1.9801	0.484348	1.67955	0.723679	0.469197	0.291174	2.14083	0.538164	0.322102	0.802177	0.683557	0.909356	0.693434
0.317674	0.124939	0.144308	2.44319	0.839858	1.98465	0.486329	1.68069	0.723949	0.474014	0.293697	2.14211	0.538551	0.333576	0.802984	0.686431	0.910181	0.706369
0.317815	0.150148	0.147191	2.44851	0.837516	1.98966	0.48831	1.68162	0.724149	0.477477	0.296223	2.14304	0.538951	0.345246	0.803795	0.689103	0.911021	0.719349
0.31801	0.17933	0.150079	2.4536	0.835168	1.99505	0.490292	1.68241	0.724278	0.479792	0.298749	2.14362	0.539365	0.357197	0.804608	0.691591	0.911876	0.732344
0.318238	0.208789	0.152974	2.45857	0.832814	2.00087	0.492275	1.68299	0.724465	0.483091	0.301275	2.14387	0.539793	0.369361	0.805425	0.69393	0.912747	0.745371
0.318502	0.23857	0.155874	2.4634	0.830452	2.00714	0.494259	1.68339	0.724669	0.486626	0.303802	2.14378	0.540235	0.381742	0.806138	0.695762	0.913633	0.758461
0.3188	0.268659	0.15878	2.46799	0.828083	2.01383	0.496243	1.68359	0.724949	0.491601	0.306328	2.14344	0.540692	0.394378	0.806748	0.697278	0.914535	0.771604
0.319135	0.299047	0.161691	2.4724	0.825705	2.02099	0.498227	1.68358	0.725307	0.497707	0.308854	2.14276	0.541165	0.407215	0.807253	0.69847	0.915452	0.78478
0.319505	0.329732	0.164607	2.4767	0.823319	2.02857	0.500211	1.68343	0.725746	0.505261	0.311379	2.14176	0.541652	0.420298	0.807653	0.699405	0.916384	0.797948
0.319912	0.360785	0.167529	2.4809	0.820924	2.03654	0.502195	1.6831	0.726269	0.51429	0.313902	2.14049	0.542155	0.433651	0.807948	0.700035	0.917332	0.8111
0.320356	0.392205	0.170455	2.48489	0.818519	2.04502	0.504178	1.68253	0.726882	0.524657	0.316424	2.13894	0.542674	0.447176	0.808137	0.700378	0.918296	0.824293
0.320836	0.423955	0.173386	2.48871	0.816104	2.05385	0.506161	1.68184	0.727506	0.53515	0.318944	2.13714	0.543209	0.460933	0.808408	0.70091	0.919275	0.837496
0.321355	0.456126	0.176321	2.49248	0.813678	2.06309	0.508143	1.68099	0.728143	0.54578	0.321461	2.13506	0.543761	0.474916	0.808703	0.701442	0.92027	0.850718
0.321912	0.488765	0.179261	2.49611	0.811241	2.07278	0.510123	1.6799	0.728792	0.556515	0.323976	2.13271	0.544329	0.489121	0.809105	0.702193	0.92115	0.86222
0.322507	0.521747	0.182204	2.49959	0.808792	2.08279	0.512102	1.67866	0.729455	0.567375	0.326488	2.13014	0.544914	0.503585	0.809613	0.70318	0.921909	0.872014
0.323141	0.555193	0.185152	2.50294	0.806332	2.09314	0.51408	1.67727	0.73013	0.578299	0.328997	2.12732	0.545516	0.518251	0.810229	0.704186	0.922543	0.880077
0.323816	0.589201	0.188104	2.5062	0.803859	2.10386	0.516056	1.67574	0.730818	0.589364	0.331502	2.12422	0.546135	0.533092	0.810953	0.705276	0.923049	0.886527
0.32453	0.623637	0.191059	2.50935	0.801373	2.11492	0.518029	1.67402	0.731519	0.600572	0.334004	2.12092	0.546772	0.548165	0.811785	0.706434	0.923423	0.891084
0.325285	0.658616	0.194018	2.51237	0.798874	2.12619	0.520001	1.67213	0.732233	0.611889	0.336501	2.1174	0.547427	0.563503	0.812618	0.707452	0.923663	0.894056
0.326082	0.694197	0.196981	2.51532	0.796362	2.13775	0.521971	1.67005	0.732961	0.623298	0.338994	2.11366	0.5481	0.579008	0.813453	0.708401	0.92401	0.898539
0.326922	0.730334	0.199947	2.51815	0.793835	2.14952	0.523938	1.66784	0.733702	0.634824	0.341483	2.10966	0.548792	0.594708	0.814288	0.709241	0.924389	0.903272
0.327804	0.767116	0.202916	2.52088	0.791295	2.16147	0.525902	1.66549	0.734457	0.646447	0.343967	2.10547	0.549502	0.610651	0.815124	0.709955	0.924908	0.909614
0.32873	0.80455	0.205889	2.52355	0.788741	2.1736	0.527863	1.66296	0.735226	0.658191	0.346446	2.10107	0.550231	0.626789	0.815961	0.710568	0.92557	0.917608
0.3297	0.842603	0.208864	2.52611	0.786172	2.18583	0.529821	1.6603	0.736009	0.670069	0.348919	2.09648	0.55098	0.643098	0.816799	0.711131	0.926377	0.927361
0.330716	0.881405	0.211843	2.52859	0.783589	2.19814	0.531777	1.65751	0.736805	0.68205	0.351387	2.0917	0.551747	0.659602	0.817638	0.711595	0.927336	0.938736
0.331778	0.920948	0.214824	2.53099	0.780991	2.21046	0.533728	1.65454	0.737616	0.694084	0.353849	2.08668	0.552534	0.676313	0.818476	0.71201	0.92845	0.951731
0.332887	0.96119	0.217809	2.5333	0.778378	2.22286	0.535676	1.65144	0.738441	0.706253	0.356305	2.08153	0.553341	0.693202	0.819316	0.712365	0.929579	0.964674
0.334043	1.00226	0.220795	2.5355	0.775751	2.23521	0.537621	1.64817	0.739281	0.718526	0.358756	2.0762	0.554168	0.710288	0.820155	0.712615	0.930723	0.977555
0.335249	1.04403	0.2234	2.53736	0.77311	2.24746	0.539561	1.64478	0.740135	0.730888	0.361199	2.07065	0.555015	0.727548	0.820995	0.71285	0.931883	0.99044
0.336504	1.08653	0.225622	2.53894	0.770454	2.25966	0.541498	1.64133	0.741004	0.743368	0.363636	2.06494	0.555883	0.744966	0.821836	0.713041	0.933058	1.00322
0.33781	1.12986	0.227461	2.5402	0.767784	2.27175	0.54343	1.63766	0.741887	0.755944	0.366066	2.05909	0.556771	0.762575	0.822676	0.713173	0.934248	1.01591
0.339167	1.1739	0.228915	2.5411	0.7651	2.2837	0.545358	1.63388	0.742786	0.768603	0.368489	2.05308	0.55768	0.780314	0.823517	0.713312	0.935452	1.02855
0.340577	1.21855	0.229985	2.54192	0.762401	2.29543	0.547281	1.62998	0.743699	0.781305	0.370905	2.04693	0.55861	0.798229	0.824357	0.713455	0.936672	1.04106
0.342039	1.26387	0.23067	2.54242	0.759689	2.30697	0.549199	1.62594	0.744627	0.794138	0.373314	2.0406	0.559562	0.816306	0.825198	0.713526	0.937906	1.0535
0.343556	1.30979	0.231654	2.54295	0.756964	2.31832	0.551113	1.62187	0.745571	0.807073	0.375715	2.03417	0.560534	0.834499	0.826039	0.713599	0.939155	1.06591
0.345127	1.35618	0.232725	2.54361	0.754225	2.32946	0.553022	1.61764	0.746529	0.820096	0.378109	2.02759	0.561529	0.852861	0.82688	0.713708	0.940418	1.0782
0.346752	1.40293	0.234181	2.54457	0.751473	2.3403	0.554926	1.61325	0.747504	0.833163	0.380494	2.02082	0.562545	0.871344	0.827721	0.713763	0.941696	1.09031
0.348433	1.44989	0.236024	2.54567	0.748709	2.35085	0.556825	1.60879	0.748493	0.846288	0.382872	2.01403	0.563583	0.889923	0.828563	0.713863	0.942988	1.10237
0.35017	1.49702	0.238253	2.54699	0.745932	2.36118	0.558718	1.60425	0.749498	0.859515	0.385241	2.00708	0.564642	0.908661	0.829404	0.713987	0.944295	1.11437
0.351962	1.54414	0.240869	2.54852	0.743143	2.37123	0.560606	1.5996	0.750519	0.872794	0.387602	2.00001	0.565724	0.927479	0.830245	0.714085	0.945615	1.1262
0.353809	1.59102	0.243874	2.55019	0.740343	2.38093	0.562488	1.59486	0.751555	0.886098	0.389955	1.99289	0.566828	0.946409	0.831087	0.714244	0.946949	1.13793
0.355712	1.63757	0.24688	2.5518	0.737531	2.39037	0.564365	1.59	0.752608	0.899526	0.3923	1.98564	0.567955	0.965469	0.831929	0.714434	0.948297	1.14955
0.357669	1.68363	0.249888	2.55333	0.734709	2.39949	0.566236	1.58511	0.753676	0.913014	0.394636	1.97831	0.569104	0.984593	0.832771	0.714675	0.949659	1.16099
0.35968	1.72892	0.252898	2.55487	0.731876	2.40831	0.568101	1.58014	0.75476	0.926497	0.396963	1.97091	0.570276	1.00379	0.833613	0.714942	0.951034	1.17232
0.361744	1.77335	0.25591	2.5563	0.729032	2.41684	0.56996	1.57506	0.755859	0.940049	0.399281	1.96344	0.57147	1.02302	0.834456	0.715222	0.952422	1.18355
0.36386	1.81681	0.258924	2.55767	0.726179	2.42506	0.571814	1.56995	0.756975	0.953637	0.401591	1.95593	0.572687	1.04237	0.835299	0.715545	0.953823	1.19466
0.366026	1.85909	0.261939	2.55898	0.723317	2.433	0.573661	1.56476	0.758107	0.967243	0.403891	1.94837	0.573927	1.06175	0.836143	0.715963	0.955238	1.20563
0.368242	1.90007	0.264955	2.56022	0.720445	2.44066	0.575502	1.5595	0.759255	0.980894	0.406183	1.94074	0.575189	1.08111	0.836987	0.716465	0.956665	1.21643
0.370505	1.93961	0.267973	2.56146	0.717564	2.44802	0.577337	1.55419	0.760419	0.994604	0.408466	1.93312	0.576475	1.10057	0.837831	0.716972	0.958105	1.22707
0.372814	1.97769	0.270993	2.5626	0.714675	2.45503	0.579165	1.54886	0.761599	1.00827	0.410739	1.92546	0.577784	1.12008	0.838677	0.717555	0.959557	1.23762
0.375166	2.01419	0.274013	2.56368	0.711777	2.46182	0.580987	1.54349	0.762796	1.02199	0.413004	1.91779	0.579115	1.13953	0.839523	0.718213	0.961022	1.24802
0.377561	2.04907	0.277035	2.56473	0.708872	2.46835	0.582803	1.53809	0.764008	1.03573	0.41526	1.91011	0.580469	1.159	0.84037	0.718945	0.962499	1.25824
0.379996	2.08233	0.280058	2.56573	0.705959	2.47461	0.584613	1.53265	0.765237	1.04942	0.417506	1.90242	0.581847	1.17848	0.841217	0.71975	0.963988	1.2683
0.382469	2.1139	0.283083	2.56667	0.703039	2.4806	0.586416	1.52714	0.766482	1.06314	0.419744	1.89477	0.583247	1.19789	0.842066	0.720629	0.965488	1.27823
0.384979	2.14386	0.286108	2.56754	0.700112	2.48637	0.588212	1.52168	0.767743	1.07689	0.421972	1.88717	0.58467	1.21729	0.842916	0.721581	0.967	1.28803
0.387522	2.17217	0.289135	2.56838	0.697179	2.49189	0.590002	1.5162	0.76902	1.09058	0.424192	1.87956	0.586116	1.2367	0.843767	0.722606	0.968524	1.29766
0.390098	2.19889	0.292162	2.56917	0.694239	2.49715	0.591786	1.51064	0.770313	1.10423	0.426402	1.87199	0.587585	1.256	0.844619	0.723742	0.970059	1.30712
