Sym0		Asym0		Sym1		Sym2		Sym3		Asym1		Asym2		Asym3		Asym4	
462  Points		491  Points		161  Points		123  Points		110  Points		334  Points		334  Points		134  Points		107  Points	
Freq (MHz)	Vgr (m/ms)	Freq (MHz)	Vgr (m/ms)	Freq (MHz)	Vgr (m/ms)	Freq (MHz)	Vgr (m/ms)	Freq (MHz)	Vgr (m/ms)	Freq (MHz)	Vgr (m/ms)	Freq (MHz)	Vgr (m/ms)	Freq (MHz)	Vgr (m/ms)	Freq (MHz)	Vgr (m/ms)
0.00713005	8.50886	0.000342374	0.518089	0.27951	0.125353	0.465299	0.0594676	0.559037	0.12555	0.139894	0.633342	0.13982	0.5124	0.41928	0.14249	0.698792	0.101443
0.0150577	8.50701	0.000825074	0.624507	0.279627	0.222091	0.465354	0.0942906	0.559154	0.181576	0.140484	0.877715	0.140297	0.757982	0.419413	0.2122	0.698887	0.142193
0.0229819	8.50226	0.00150607	0.830934	0.279924	0.41511	0.465475	0.164189	0.559375	0.293477	0.141529	1.3599	0.141232	1.24322	0.419676	0.351457	0.699057	0.223721
0.0309007	8.49548	0.00237343	1.02322	0.280401	0.606984	0.46566	0.234627	0.559701	0.405145	0.143018	1.82668	0.142614	1.71417	0.420068	0.490299	0.699304	0.305186
0.0388123	8.48666	0.00341273	1.19941	0.281055	0.797225	0.465912	0.305774	0.56013	0.516495	0.144933	2.27382	0.144426	2.16646	0.420589	0.628603	0.699626	0.386523
0.0467147	8.47578	0.0046084	1.35844	0.281886	0.985228	0.46623	0.377831	0.560663	0.627426	0.147255	2.69819	0.146651	2.59665	0.421239	0.766197	0.700024	0.46768
0.054606	8.46272	0.00594403	1.49999	0.282891	1.17058	0.466616	0.451045	0.561299	0.737814	0.149961	3.09766	0.149265	3.00234	0.422017	0.902883	0.700497	0.548621
0.062484	8.44737	0.00740346	1.62451	0.284068	1.35292	0.467071	0.525623	0.562038	0.847629	0.153027	3.47106	0.152245	3.38218	0.422922	1.03863	0.701046	0.629351
0.0703467	8.42971	0.00897112	1.73285	0.285412	1.53169	0.467595	0.601756	0.562879	0.956809	0.156429	3.81803	0.155567	3.73558	0.423953	1.17325	0.70167	0.709805
0.0781919	8.4097	0.0106324	1.82612	0.286922	1.70658	0.468192	0.679681	0.563821	1.06516	0.160141	4.13887	0.159206	4.06276	0.425108	1.30653	0.702369	0.79
0.0860173	8.3871	0.0123739	1.90573	0.288592	1.87721	0.468862	0.759579	0.564864	1.17273	0.164141	4.43441	0.163138	4.3644	0.426387	1.43849	0.703142	0.869824
0.0938203	8.36176	0.0141836	1.97318	0.29042	2.04334	0.469607	0.841666	0.566006	1.27947	0.168404	4.70578	0.167338	4.64159	0.427789	1.56888	0.70399	0.949272
0.101599	8.33365	0.0160507	2.02993	0.2924	2.20473	0.47043	0.926079	0.567248	1.38521	0.17291	4.95447	0.171787	4.89568	0.429311	1.69761	0.704911	1.02841
0.109349	8.30253	0.0179661	2.07737	0.294528	2.36117	0.471333	1.01302	0.568588	1.4899	0.177637	5.18187	0.176461	5.12812	0.430952	1.82462	0.705906	1.10706
0.117069	8.2682	0.0199217	2.11672	0.2968	2.51249	0.472318	1.10275	0.570024	1.5936	0.182566	5.38947	0.181342	5.34045	0.432711	1.94973	0.706974	1.18527
0.124756	8.23046	0.0219104	2.14921	0.29921	2.6586	0.473388	1.19541	0.571557	1.69618	0.187679	5.57888	0.186412	5.53417	0.434585	2.07294	0.708114	1.26302
0.132406	8.1891	0.0239265	2.17595	0.301754	2.79958	0.474545	1.29109	0.573185	1.79757	0.192961	5.75152	0.191655	5.71075	0.436573	2.19414	0.709327	1.34022
0.140016	8.1438	0.0257017	2.19522	0.304426	2.93535	0.475794	1.38994	0.574907	1.8978	0.198397	5.90871	0.197054	5.87159	0.438673	2.31318	0.710612	1.41693
0.147581	8.0943	0.0272262	2.20909	0.307223	3.06605	0.477135	1.4922	0.576721	1.99683	0.203971	6.05178	0.202596	6.01805	0.440884	2.43006	0.711968	1.49306
0.155098	8.04035	0.0284935	2.21894	0.31014	3.19187	0.478574	1.59792	0.578627	2.09454	0.209673	6.18192	0.208268	6.15125	0.443202	2.54472	0.713394	1.56858
0.162563	7.98152	0.0294993	2.22591	0.313171	3.31298	0.480113	1.7072	0.580624	2.19102	0.215491	6.30017	0.214058	6.27226	0.445625	2.65707	0.71489	1.6435
0.169971	7.91746	0.0302408	2.23058	0.316313	3.42969	0.481755	1.82013	0.58271	2.28619	0.221413	6.40754	0.219955	6.38222	0.448153	2.76708	0.716457	1.71785
0.177317	7.8478	0.0307161	2.23321	0.319562	3.54238	0.483505	1.93672	0.584884	2.38	0.227431	6.50496	0.22595	6.48203	0.450782	2.87474	0.718091	1.79146
0.184595	7.77212	0.0314003	2.2369	0.322914	3.65155	0.485364	2.05704	0.587145	2.47248	0.233534	6.59323	0.232034	6.57244	0.45351	2.97998	0.719795	1.86442
0.191799	7.68998	0.0321453	2.24067	0.326366	3.75759	0.487338	2.18106	0.589491	2.56361	0.239716	6.67301	0.238197	6.65424	0.456334	3.0828	0.721566	1.93674
0.198924	7.60091	0.0331604	2.24508	0.329916	3.86106	0.489428	2.30878	0.591922	2.65345	0.245969	6.74506	0.244433	6.72811	0.459254	3.18318	0.723404	2.00827
0.205963	7.50444	0.0344468	2.25005	0.333561	3.96267	0.49164	2.44006	0.594436	2.74187	0.252285	6.81005	0.250735	6.79484	0.462266	3.28112	0.725308	2.07905
0.212908	7.4002	0.036006	2.25514	0.3373	4.063	0.493975	2.57475	0.597031	2.82891	0.257836	6.86132	0.256274	6.84749	0.465368	3.37658	0.727278	2.14912
0.219752	7.28774	0.0378392	2.25995	0.341132	4.1628	0.496438	2.71281	0.599707	2.91466	0.262599	6.90126	0.261028	6.88859	0.468558	3.46957	0.729313	2.21844
0.226488	7.1666	0.039947	2.26423	0.345057	4.26279	0.49903	2.85394	0.602462	2.99901	0.266558	6.93184	0.26498	6.92006	0.471833	3.56018	0.731412	2.28699
0.233106	7.03653	0.0420583	2.26736	0.349075	4.36368	0.501756	2.99793	0.605295	3.082	0.2697	6.95455	0.268117	6.94328	0.475192	3.6484	0.733574	2.35472
0.239599	6.89732	0.044172	2.26955	0.353188	4.46613	0.504616	3.14453	0.608205	3.16369	0.272017	6.97032	0.27043	6.95957	0.478632	3.73416	0.735799	2.42163
0.245959	6.74882	0.0462874	2.27101	0.357397	4.57076	0.507615	3.29331	0.611191	3.24401	0.273502	6.97999	0.271913	6.96964	0.48215	3.81757	0.738086	2.48777
0.252175	6.59114	0.0484038	2.27181	0.361705	4.67822	0.510753	3.44402	0.61425	3.32306	0.275641	6.99345	0.274049	6.98355	0.485745	3.8987	0.740435	2.55303
0.25824	6.42444	0.0505206	2.27214	0.366114	4.78877	0.514033	3.59624	0.617383	3.40082	0.277971	7.00748	0.276375	6.9979	0.489415	3.97754	0.742844	2.61748
0.264146	6.24919	0.0526377	2.27216	0.370628	4.90271	0.517454	3.74951	0.620587	3.4773	0.281146	7.02543	0.279546	7.01642	0.493157	4.05414	0.745312	2.68114
0.269885	6.06604	0.0547546	2.2718	0.37525	5.02015	0.521019	3.90348	0.623862	3.55256	0.285173	7.04646	0.283568	7.03828	0.496969	4.12859	0.74784	2.74392
0.27545	5.87589	0.0568709	2.27122	0.379983	5.14084	0.524728	4.05761	0.627207	3.62653	0.290059	7.0696	0.288448	7.06219	0.50085	4.20089	0.750425	2.80584
0.280834	5.67987	0.0589867	2.27049	0.384829	5.26445	0.52858	4.21148	0.63062	3.69934	0.295809	7.09353	0.294193	7.0871	0.504797	4.27107	0.753068	2.86691
0.286034	5.4792	0.0611017	2.26957	0.389793	5.39037	0.532576	4.36469	0.6341	3.77104	0.30243	7.11717	0.300808	7.11175	0.508809	4.3393	0.755767	2.92715
0.291044	5.27541	0.0632158	2.2686	0.394874	5.51779	0.536713	4.5167	0.637647	3.84157	0.309071	7.13682	0.307445	7.13239	0.512883	4.40565	0.758523	2.98655
0.295864	5.07004	0.065329	2.26757	0.400074	5.64577	0.540992	4.66715	0.641259	3.91101	0.315728	7.15258	0.314099	7.14908	0.517018	4.47009	0.761333	3.04509
0.300492	4.86468	0.0674412	2.26646	0.404703	5.75696	0.54541	4.81562	0.644935	3.97941	0.322399	7.16464	0.320766	7.162	0.521212	4.5327	0.764197	3.10275
0.304928	4.66093	0.0695523	2.26536	0.408721	5.85087	0.549965	4.96167	0.648674	4.04679	0.329079	7.17308	0.327444	7.17136	0.525464	4.59368	0.767114	3.15963
0.309177	4.46027	0.0716624	2.26426	0.412091	5.92764	0.554656	5.10496	0.652475	4.11321	0.335765	7.17815	0.334129	7.17721	0.529772	4.65309	0.770084	3.21567
0.31324	4.26411	0.0737715	2.26317	0.414787	5.98757	0.559478	5.2452	0.656338	4.17875	0.342455	7.17988	0.340818	7.17973	0.534135	4.71089	0.773106	3.27084
0.317122	4.07364	0.0758796	2.26207	0.416787	6.03107	0.56443	5.38204	0.660262	4.24346	0.349144	7.17832	0.347508	7.17901	0.538551	4.76725	0.776179	3.32517
0.32083	3.88979	0.0779866	2.26097	0.418074	6.0586	0.569507	5.51526	0.664246	4.30732	0.355831	7.1737	0.354196	7.1751	0.543018	4.82231	0.779302	3.37873
0.324371	3.7134	0.0800927	2.25991	0.419935	6.09781	0.574707	5.64465	0.668288	4.37046	0.362511	7.16593	0.360878	7.16813	0.547536	4.87613	0.782475	3.43151
0.32775	3.54504	0.0821977	2.2589	0.421971	6.13986	0.580025	5.76991	0.67239	4.43302	0.369184	7.15513	0.367553	7.15805	0.552104	4.92876	0.785697	3.48346
0.330976	3.38505	0.0843019	2.25792	0.424763	6.19595	0.585458	5.89094	0.676549	4.49492	0.375844	7.14138	0.374216	7.14499	0.556721	4.98032	0.788966	3.53462
0.334058	3.23362	0.0864051	2.25695	0.428329	6.26513	0.591002	6.00761	0.680765	4.55633	0.382491	7.12461	0.380867	7.12902	0.561385	5.03094	0.792283	3.58502
0.337002	3.09085	0.0885074	2.25603	0.432693	6.34575	0.596653	6.11973	0.685039	4.61739	0.38912	7.10495	0.387501	7.11004	0.566095	5.08068	0.795646	3.63468
0.339817	2.95663	0.090609	2.25513	0.437883	6.43592	0.602406	6.22729	0.689369	4.67807	0.39573	7.08241	0.394115	7.08818	0.570852	5.12963	0.799056	3.68363
0.342511	2.83073	0.0927096	2.25431	0.443926	6.53323	0.608257	6.33014	0.693756	4.73856	0.402317	7.05693	0.400709	7.06344	0.575654	5.17795	0.80251	3.73179
0.345092	2.71296	0.0948096	2.2535	0.450057	6.6236	0.614201	6.42817	0.698199	4.79898	0.40888	7.02856	0.407277	7.03576	0.5805	5.22566	0.80601	3.77926
0.347567	2.60296	0.0969088	2.25273	0.456269	6.70669	0.620235	6.52141	0.702698	4.85939	0.415414	6.99727	0.413819	7.00518	0.585391	5.27281	0.809553	3.82609
0.349942	2.50037	0.0990073	2.25198	0.462554	6.78248	0.626353	6.60981	0.707254	4.92001	0.421918	6.96309	0.420331	6.97173	0.590326	5.31957	0.813139	3.8722
0.352226	2.40483	0.101105	2.25127	0.468907	6.85095	0.632551	6.69322	0.711866	4.98089	0.428389	6.92608	0.42681	6.93538	0.595304	5.36601	0.816768	3.91769
0.354423	2.31598	0.103202	2.25063	0.47532	6.91228	0.638825	6.77164	0.716535	5.04223	0.434824	6.88612	0.433254	6.89614	0.600325	5.41215	0.820439	3.96252
0.356541	2.23337	0.105299	2.24994	0.481787	6.96679	0.64517	6.84506	0.721262	5.10426	0.441221	6.84325	0.43966	6.85401	0.604735	5.45215	0.824152	4.00672
0.358585	2.15661	0.107395	2.24934	0.488302	7.01463	0.65158	6.9133	0.726047	5.1671	0.447576	6.79753	0.446026	6.80899	0.60852	5.4861	0.827905	4.05028
0.36056	2.08542	0.10949	2.24878	0.494858	7.0562	0.658052	6.97633	0.73089	5.23096	0.453887	6.74886	0.452348	6.76106	0.611668	5.51419	0.831699	4.09332
0.362471	2.01929	0.111585	2.24821	0.501451	7.09185	0.66458	7.03414	0.735794	5.29605	0.460152	6.69731	0.458624	6.71018	0.614169	5.53633	0.835533	4.13581
0.364323	1.95799	0.11368	2.24763	0.508073	7.12187	0.671159	7.08653	0.740759	5.36258	0.466367	6.64297	0.464852	6.65651	0.616014	5.55255	0.839406	4.17765
0.366119	1.90117	0.115773	2.24712	0.514721	7.14673	0.677785	7.13347	0.745787	5.43083	0.47253	6.58574	0.471028	6.59997	0.617197	5.56297	0.843317	4.21901
0.367865	1.84846	0.117867	2.24668	0.521391	7.16671	0.684452	7.17482	0.750879	5.50104	0.478639	6.52566	0.47715	6.54061	0.618902	5.57793	0.847267	4.2599
0.369564	1.79966	0.11996	2.24621	0.528076	7.18211	0.691154	7.21035	0.756037	5.57349	0.48469	6.46285	0.483216	6.47848	0.620761	5.59414	0.851255	4.30022
0.371219	1.75444	0.122052	2.24575	0.534774	7.1933	0.697887	7.24018	0.761264	5.64845	0.490682	6.39731	0.489222	6.41358	0.623298	5.61623	0.85528	4.34007
0.372833	1.71255	0.124145	2.24534	0.54148	7.20053	0.703775	7.26139	0.766562	5.72616	0.496611	6.32917	0.495167	6.34609	0.62652	5.64406	0.859342	4.37949
0.37441	1.67382	0.126236	2.24495	0.548191	7.20415	0.708806	7.27577	0.771934	5.80686	0.502475	6.25847	0.501047	6.27597	0.630438	5.67767	0.863441	4.41841
0.375952	1.63795	0.128328	2.24454	0.554904	7.20432	0.712974	7.28506	0.777383	5.89085	0.508273	6.18526	0.506861	6.20338	0.635064	5.71708	0.867576	4.45684
0.377462	1.60474	0.130419	2.24415	0.561615	7.20132	0.716272	7.29078	0.782911	5.97833	0.514001	6.10973	0.512606	6.12845	0.640411	5.76212	0.871746	4.49488
0.378942	1.57406	0.13251	2.24384	0.568323	7.19536	0.718698	7.29403	0.788523	6.06942	0.519658	6.03197	0.518281	6.05118	0.645801	5.80702	0.875951	4.53251
0.380395	1.54574	0.1346	2.2435	0.575023	7.18662	0.720252	7.29559	0.794221	6.16424	0.525241	5.95211	0.523882	5.97182	0.651232	5.85173	0.880192	4.56969
0.381823	1.51956	0.13669	2.24315	0.581714	7.1753	0.722486	7.2972	0.800009	6.26277	0.530749	5.87029	0.529409	5.8905	0.656705	5.89617	0.884467	4.60648
0.383227	1.49533	0.13878	2.24283	0.588394	7.16151	0.724914	7.29817	0.805891	6.36497	0.536179	5.78671	0.534858	5.80732	0.662219	5.94025	0.888775	4.64285
0.384609	1.47302	0.140869	2.24256	0.595059	7.14542	0.728217	7.29817	0.81187	6.47056	0.541532	5.70156	0.54023	5.72248	0.667774	5.98394	0.893118	4.67881
0.385971	1.4525	0.142959	2.24228	0.601708	7.12716	0.732393	7.29594	0.817161	6.56512	0.546804	5.61494	0.545522	5.63623	0.673369	6.02706	0.897494	4.71442
0.387316	1.43357	0.145048	2.24199	0.60834	7.10682	0.737442	7.28996	0.821733	6.64734	0.551994	5.52709	0.550732	5.54868	0.679005	6.0696	0.901903	4.74959
0.388643	1.41616	0.147136	2.24174	0.614951	7.08453	0.743357	7.27853	0.825557	6.71631	0.557103	5.4382	0.555861	5.46001	0.684679	6.11142	0.906344	4.78441
0.389954	1.40015	0.149225	2.24147	0.621541	7.06039	0.750131	7.25968	0.828609	6.77143	0.562128	5.34849	0.560907	5.37052	0.690393	6.15239	0.910818	4.81883
0.391252	1.38548	0.151313	2.24122	0.628107	7.0344	0.756884	7.23502	0.830869	6.81224	0.567069	5.25815	0.565868	5.28029	0.696144	6.19244	0.915324	4.85288
0.392536	1.37205	0.153401	2.24102	0.634649	7.00668	0.763612	7.20468	0.832322	6.83846	0.571926	5.16731	0.570746	5.18955	0.701931	6.23139	0.919861	4.88654
0.393808	1.35975	0.155489	2.24078	0.641163	6.97733	0.770309	7.16921	0.834422	6.87618	0.576698	5.07626	0.575539	5.09858	0.707755	6.26922	0.924429	4.91982
0.39507	1.34856	0.157576	2.24055	0.64765	6.94636	0.776971	7.12922	0.836716	6.91728	0.581385	4.98522	0.580247	5.00747	0.713613	6.30578	0.929028	4.95275
0.396321	1.33834	0.159664	2.24039	0.654107	6.91385	0.783594	7.08542	0.839859	6.97337	0.585987	4.89425	0.584869	4.91643	0.719505	6.34091	0.933658	4.98528
0.397404	1.3302	0.161751	2.24017	0.660533	6.87983	0.790174	7.03872	0.843871	7.04431	0.590505	4.80358	0.589408	4.82572	0.725429	6.37459	0.937717	5.01331
0.398323	1.32377	0.163838	2.23995	0.666927	6.84429	0.79671	6.98993	0.848776	7.12979	0.594938	4.71338	0.593862	4.7354	0.731384	6.40673	0.941195	5.03696
0.399079	1.31878	0.165925	2.2398	0.673287	6.80733	0.803199	6.94004	0.854605	7.2293	0.599288	4.62382	0.598232	4.64566	0.737367	6.4372	0.944083	5.0564
0.399675	1.31507	0.168012	2.23962	0.679612	6.76904	0.809642	6.89001	0.861394	7.34178	0.603554	4.53506	0.602518	4.55671	0.743379	6.46598	0.946375	5.07171
0.400112	1.31262	0.170098	2.23945	0.6859	6.72935	0.816038	6.84068	0.868286	7.45178	0.607738	4.44717	0.606723	4.46858	0.749416	6.49301	0.948065	5.08294
0.400391	1.31097	0.172185	2.2393	0.692151	6.68834	0.822389	6.79279	0.875279	7.55848	0.611841	4.36035	0.610845	4.38148	0.755478	6.5182	0.949148	5.08997
0.400792	1.30869	0.174271	2.23911	0.698363	6.64604	0.828696	6.7471	0.88237	7.66135	0.615863	4.27467	0.614887	4.29553	0.761562	6.54153	0.950707	5.1001
0.401227	1.30645	0.176357	2.23898	0.704535	6.60244	0.834961	6.70415	0.889555	7.75988	0.619806	4.1902	0.618849	4.21073	0.767667	6.56297	0.952406	5.1112
0.401818	1.30329	0.178443	2.23884	0.710666	6.55769	0.841188	6.66436	0.89683	7.85371	0.623671	4.10706	0.622733	4.12728	0.773791	6.58248	0.954723	5.12606
0.402563	1.29971	0.180529	2.23866	0.716755	6.51172	0.84738	6.62802	0.90419	7.9427	0.627459	4.02535	0.62654	4.04519	0.779933	6.60003	0.957662	5.14483
0.403461	1.29575	0.182615	2.23853	0.7228	6.46457	0.853539	6.59524	0.91163	8.02668	0.631172	3.94509	0.630271	3.96457	0.78609	6.61562	0.961231	5.16731
0.404511	1.29149	0.1847	2.2384	0.728801	6.41635	0.859669	6.56618	0.919147	8.10561	0.634811	3.86636	0.633928	3.88547	0.79226	6.62931	0.965437	5.19337
0.405712	1.28719	0.186786	2.23826	0.734756	6.36708	0.865774	6.54074	0.926734	8.17969	0.638377	3.78917	0.637511	3.80791	0.798443	6.64107	0.970289	5.22296
0.40691	1.28343	0.188871	2.23815	0.740665	6.3167	0.871857	6.51879	0.934389	8.24892	0.641871	3.71358	0.641023	3.73192	0.804635	6.65082	0.975169	5.25219
0.408104	1.28019	0.190956	2.23802	0.746527	6.26536	0.877921	6.50023	0.942105	8.31352	0.645296	3.63965	0.644465	3.65756	0.810836	6.65871	0.980076	5.28101
0.409295	1.27747	0.193041	2.23792	0.75234	6.21311	0.883969	6.48488	0.94988	8.37373	0.648653	3.56737	0.647839	3.5849	0.817043	6.6647	0.98501	5.30952
0.410484	1.27524	0.195126	2.2378	0.758104	6.15992	0.890005	6.47244	0.957709	8.42973	0.651944	3.49674	0.651145	3.51388	0.823255	6.66879	0.98997	5.33762
0.411671	1.27339	0.197211	2.23766	0.763818	6.10593	0.89603	6.4627	0.965588	8.48182	0.655169	3.42777	0.654386	3.4445	0.829469	6.67102	0.994956	5.36536
0.412857	1.27198	0.199296	2.2376	0.769482	6.0511	0.902047	6.45545	0.973514	8.53017	0.658331	3.36051	0.657564	3.37678	0.835685	6.67148	0.999967	5.39275
0.414042	1.27099	0.201381	2.23749	0.775094	5.99553	0.908059	6.45037	0.981483	8.57496	0.661431	3.29491	0.660679	3.3108	0.841901	6.67013	1.005	5.40632
0.415225	1.27031	0.203465	2.23736	0.780654	5.93928	0.914067	6.44724	0.989492	8.61648	0.664471	3.23098	0.663733	3.24647	0.848114	6.66697		
0.416409	1.27001	0.20555	2.23726	0.786161	5.88242	0.920073	6.44589	0.997539	8.65488	0.667452	3.16873	0.666728	3.18379	0.854324	6.66213		
0.417592	1.27004	0.207634	2.23718	0.791615	5.82501	0.926078	6.44606	1.00562	8.6733	0.670375	3.10809	0.669666	3.12279	0.860529	6.65561		
0.418775	1.27038	0.209719	2.2371	0.797015	5.76705	0.932084	6.4475			0.673243	3.04909	0.672547	3.06336	0.866726	6.6474		
0.419959	1.271	0.211803	2.23702	0.802361	5.70863	0.938092	6.45005			0.676057	2.99173	0.675374	3.0056	0.872915	6.63759		
0.421144	1.27182	0.213887	2.23691	0.807653	5.64986	0.944103	6.45349			0.678818	2.93591	0.678148	2.94943	0.879095	6.6262		
0.422329	1.27296	0.215971	2.23682	0.812889	5.59071	0.950118	6.45766			0.681528	2.88167	0.68087	2.8948	0.885263	6.61325		
0.423516	1.27433	0.218055	2.23677	0.81807	5.53132	0.956136	6.46242			0.684188	2.82899	0.683542	2.84173	0.891418	6.59883		
0.424704	1.2759	0.220139	2.23667	0.823196	5.47175	0.96216	6.46758			0.686799	2.77782	0.686165	2.79019	0.897559	6.5829		
0.425893	1.27771	0.222223	2.23659	0.828266	5.41193	0.968188	6.47302			0.689364	2.7281	0.688741	2.7401	0.903684	6.56553		
0.427084	1.27968	0.224307	2.23651	0.833281	5.35206	0.974222	6.47863			0.691883	2.67987	0.691271	2.69151	0.909793	6.54681		
0.428278	1.28183	0.22639	2.23643	0.838239	5.29217	0.98026	6.48426			0.694358	2.63306	0.693756	2.6444	0.915883	6.52668		
0.429473	1.28419	0.228474	2.2364	0.843142	5.23224	0.986304	6.48982			0.696789	2.58764	0.696198	2.59865	0.921955	6.50523		
0.430671	1.28669	0.230558	2.2363	0.847989	5.17239	0.992353	6.4952			0.699179	2.54362	0.698599	2.55425	0.928005	6.48253		
0.431871	1.28933	0.232641	2.23622	0.85278	5.11265	0.998407	6.5003			0.701529	2.50092	0.700958	2.51121	0.934034	6.45854		
0.433073	1.29215	0.234725	2.23618	0.857516	5.05305	1.00447	6.50281			0.70384	2.45953	0.703278	2.46951	0.94004	6.43337		
0.434278	1.29506	0.236808	2.23612	0.862196	4.99366					0.706112	2.4194	0.70556	2.4291	0.946022	6.40701		
0.435486	1.29809	0.238891	2.23606	0.866821	4.93452					0.708348	2.3805	0.707804	2.38993	0.951979	6.37947		
0.436697	1.30129	0.240975	2.23595	0.871391	4.87565					0.710548	2.34282	0.710013	2.35196	0.957909	6.35091		
0.437911	1.30458	0.243058	2.2359	0.875906	4.8171					0.712713	2.30636	0.712187	2.31518	0.963813	6.32125		
0.439128	1.30794	0.245141	2.23587	0.880367	4.7589					0.714846	2.27103	0.714327	2.27954	0.969688	6.29056		
0.440348	1.31142	0.247224	2.23582	0.884774	4.70109					0.716945	2.23682	0.716435	2.24509	0.975535	6.25892		
0.441572	1.31499	0.249307	2.23576	0.889127	4.64369					0.719014	2.2037	0.718511	2.21172	0.981351	6.22629		
0.442799	1.31864	0.25139	2.23569	0.893427	4.58672					0.721052	2.17166	0.720556	2.17936	0.987137	6.1928		
0.444029	1.32237	0.253473	2.23566	0.897674	4.53025					0.72306	2.14066	0.722572	2.14813	0.992891	6.15844		
0.445263	1.32618	0.255556	2.23561	0.901869	4.47426					0.72504	2.11058	0.724559	2.11786	0.998612	6.12325		
0.4465	1.33002	0.257639	2.23554	0.906011	4.41877					0.726993	2.08155	0.726518	2.08859	1.0043	6.10546		
0.447741	1.33396	0.259722	2.23551	0.910103	4.36384					0.728919	2.05349	0.728451	2.06026				
