Sym0		Asym0		Sym1		Sym2		Asym1		Asym2	
473  Points		492  Points		473  Points		206  Points		388  Points		129  Points	
Freq (MHz)	Vgr (m/ms)	Freq (MHz)	Vgr (m/ms)	Freq (MHz)	Vgr (m/ms)	Freq (MHz)	Vgr (m/ms)	Freq (MHz)	Vgr (m/ms)	Freq (MHz)	Vgr (m/ms)
0.00744277	9.04193	3.20348e-005	0.250698	0.00630397	9.0422	0.279589	0.280799	0.139885	0.674483	0.419264	0.0960098
0.0158671	9.03988	0.000265609	0.369662	0.0147285	9.04037	0.27985	0.377522	0.140513	0.949125	0.419353	0.173765
0.0242876	9.03476	0.00072086	0.602337	0.0231497	9.03563	0.280292	0.569693	0.141653	1.49056	0.419588	0.329101
0.0327024	9.02753	0.001388	0.82269	0.0315655	9.02865	0.280912	0.758772	0.143291	2.01341	0.419966	0.483914
0.0411094	9.01797	0.00225385	1.02726	0.0399736	9.01937	0.281706	0.943863	0.145405	2.51265	0.420489	0.638046
0.0495064	9.00603	0.00330219	1.21368	0.0483721	9.00776	0.282671	1.12398	0.147973	2.98444	0.421155	0.79133
0.0578911	8.9916	0.00451541	1.38071	0.0567586	8.9937	0.283801	1.29811	0.150966	3.4264	0.421964	0.943503
0.0662612	8.97446	0.00587499	1.52799	0.0651308	8.97694	0.28509	1.46554	0.154358	3.83731	0.422913	1.09441
0.0746141	8.95445	0.00736266	1.65622	0.0734861	8.95733	0.286532	1.62541	0.158117	4.21698	0.424003	1.2438
0.0829469	8.93137	0.00896118	1.7665	0.0818218	8.93466	0.288118	1.77699	0.162215	4.56601	0.425231	1.39148
0.0912567	8.9049	0.0106543	1.8602	0.0901349	8.90866	0.289843	1.91976	0.166625	4.88556	0.426596	1.53736
0.0995402	8.87473	0.0124275	1.93912	0.0984221	8.87907	0.291696	2.05323	0.171319	5.17728	0.428096	1.68116
0.107794	8.84048	0.0142677	2.00505	0.10668	8.84538	0.293669	2.17714	0.176272	5.4429	0.429729	1.8228
0.116013	8.8017	0.0161636	2.05963	0.114905	8.80722	0.295753	2.29137	0.181461	5.68426	0.431492	1.96208
0.124195	8.75792	0.0181056	2.10449	0.123091	8.76416	0.297938	2.39613	0.186864	5.90324	0.433385	2.09885
0.132333	8.70852	0.0200851	2.14111	0.131236	8.71554	0.300218	2.49174	0.192461	6.10177	0.435403	2.23308
0.140422	8.65278	0.0220953	2.17092	0.139332	8.6607	0.302582	2.57897	0.198234	6.28151	0.437546	2.36451
0.148456	8.58986	0.0238673	2.19218	0.147374	8.59884	0.305023	2.65894	0.204166	6.44404	0.439809	2.49311
0.156428	8.51895	0.0253903	2.20731	0.155355	8.52904	0.307536	2.73305	0.210242	6.5909	0.442192	2.61877
0.16433	8.43894	0.0266568	2.21792	0.163267	8.45031	0.310116	2.80311	0.216448	6.7235	0.444689	2.74133
0.172153	8.34858	0.0276623	2.22536	0.171101	8.36146	0.312759	2.87139	0.222771	6.84301	0.4473	2.86084
0.179887	8.2466	0.0284036	2.23022	0.178847	8.26112	0.315466	2.94048	0.229199	6.9505	0.45002	2.97718
0.18752	8.13147	0.0288789	2.23311	0.186495	8.14787	0.318239	3.01326	0.235722	7.04704	0.452847	3.09026
0.195039	8.00157	0.0295632	2.23701	0.19403	8.02005	0.321081	3.0929	0.24233	7.13348	0.455778	3.2001
0.20243	7.85506	0.0303082	2.24081	0.201439	7.87587	0.324002	3.18275	0.249015	7.21063	0.45881	3.30661
0.209676	7.69022	0.0313234	2.24549	0.208706	7.71364	0.327012	3.28621	0.255767	7.27917	0.46194	3.40979
0.21676	7.50535	0.0326101	2.25061	0.215813	7.53156	0.330125	3.40647	0.262578	7.3397	0.465164	3.50965
0.223662	7.29878	0.0341698	2.25576	0.22274	7.32802	0.33336	3.54644	0.269443	7.3928	0.46848	3.60617
0.23036	7.06942	0.0360034	2.26048	0.229468	7.10178	0.336734	3.70852	0.276354	7.43894	0.471884	3.69937
0.236835	6.81664	0.0381117	2.26463	0.235974	6.85218	0.34027	3.89427	0.283305	7.4785	0.475373	3.78925
0.243063	6.54085	0.0402233	2.26755	0.242236	6.57944	0.34399	4.10411	0.290289	7.51182	0.478945	3.87592
0.249023	6.24341	0.042337	2.26949	0.248234	6.28481	0.347918	4.33724	0.297302	7.53929	0.482596	3.95939
0.254696	5.92708	0.0444522	2.27068	0.253947	5.97081	0.352072	4.59126	0.304338	7.56111	0.486323	4.03969
0.260067	5.59596	0.0465682	2.2712	0.25936	5.64141	0.356473	4.86236	0.311392	7.57744	0.490123	4.11693
0.265124	5.25525	0.0486843	2.27128	0.264459	5.30164	0.361133	5.14543	0.318458	7.58849	0.493994	4.19114
0.26986	4.91104	0.0508004	2.27102	0.269239	4.95742	0.366061	5.43441	0.325532	7.59449	0.497933	4.26251
0.274275	4.56963	0.0529161	2.27042	0.273142	4.65855	0.371259	5.72292	0.332609	7.59541	0.501937	4.33113
0.278375	4.2372	0.0550311	2.26964	0.276278	4.40783	0.376725	6.00471	0.339685	7.59133	0.506003	4.39711
0.282171	3.91916	0.0571454	2.2687	0.278742	4.2051	0.382448	6.27437	0.346755	7.58236	0.51013	4.46057
0.285678	3.61961	0.0592586	2.26761	0.280609	4.04856	0.388416	6.52752	0.353814	7.56845	0.514315	4.52174
0.288915	3.34147	0.0613708	2.26652	0.281937	3.93613	0.394612	6.76114	0.360858	7.54957	0.518556	4.58078
0.291904	3.08636	0.063482	2.26535	0.282768	3.86548	0.401015	6.9735	0.367882	7.52573	0.522851	4.63787
0.294666	2.85468	0.065592	2.26418	0.283936	3.76587	0.407606	7.16393	0.374881	7.49686	0.527198	4.69321
0.297224	2.64605	0.067701	2.26297	0.285171	3.66022	0.414364	7.33267	0.381851	7.46285	0.531596	4.74708
0.299597	2.45935	0.0698088	2.26174	0.286796	3.52097	0.42127	7.4806	0.388787	7.42355	0.536044	4.79973
0.301806	2.29309	0.0719155	2.26062	0.288761	3.3526	0.428304	7.60895	0.395684	7.37893	0.54054	4.85141
0.30387	2.14557	0.0740212	2.25947	0.291013	3.16068	0.435448	7.71917	0.402537	7.32888	0.545084	4.90241
0.305804	2.01504	0.0761258	2.25834	0.293491	2.95209	0.442687	7.8129	0.409341	7.27316	0.549675	4.95306
0.307625	1.89973	0.0782294	2.2573	0.296135	2.73406	0.450007	7.89167	0.41609	7.21167	0.554313	5.00361
0.309344	1.79795	0.0803321	2.25627	0.298586	2.53799	0.457393	7.95685	0.422779	7.14435	0.558999	5.05439
0.310975	1.70821	0.0824337	2.25524	0.300864	2.36302	0.464833	8.0098	0.429403	7.07102	0.563732	5.10577
0.312527	1.62914	0.0845345	2.25429	0.302989	2.20757	0.472318	8.05176	0.435955	6.99153	0.568513	5.15801
0.314011	1.55941	0.0866344	2.25341	0.304977	2.06989	0.479837	8.08382	0.442431	6.90586	0.573343	5.21144
0.315433	1.49794	0.0887334	2.25253	0.306846	1.94817	0.487381	8.10684	0.448824	6.81399	0.578224	5.26636
0.316802	1.44385	0.0908317	2.25173	0.308608	1.84069	0.494943	8.12169	0.455128	6.7158	0.583156	5.32303
0.318124	1.39617	0.0929293	2.25092	0.310276	1.74587	0.502515	8.12905	0.461338	6.6114	0.588143	5.38166
0.319404	1.35413	0.095026	2.25015	0.311861	1.66231	0.510091	8.12956	0.467447	6.50089	0.593185	5.44245
0.320647	1.31721	0.0971222	2.24947	0.313373	1.58867	0.517664	8.12377	0.473451	6.38439	0.598284	5.50551
0.321858	1.28477	0.0992177	2.24877	0.314821	1.52376	0.525228	8.11212	0.479344	6.26214	0.603443	5.57092
0.323041	1.25621	0.101313	2.24812	0.316213	1.46655	0.53278	8.09504	0.48512	6.13446	0.608665	5.63867
0.324199	1.23123	0.103407	2.24754	0.317554	1.41615	0.540313	8.07282	0.490775	6.00177	0.61395	5.70869
0.325335	1.20942	0.105501	2.24696	0.318851	1.37177	0.547823	8.04582	0.496304	5.86451	0.619302	5.78084
0.326453	1.19039	0.107594	2.24638	0.32011	1.33273	0.555305	8.0143	0.501703	5.7232	0.624722	5.8549
0.327553	1.17386	0.109686	2.24583	0.321335	1.29838	0.562756	7.9785	0.506968	5.57842	0.630212	5.93057
0.32864	1.15956	0.111779	2.24533	0.32253	1.26816	0.570172	7.93862	0.512098	5.43089	0.635773	6.00744
0.329714	1.1473	0.11387	2.24487	0.323698	1.24171	0.577549	7.89482	0.517088	5.28127	0.641407	6.08515
0.330778	1.13684	0.115962	2.24441	0.324843	1.21855	0.584883	7.84728	0.521939	5.13029	0.647112	6.16323
0.331833	1.128	0.118053	2.24397	0.325969	1.19833	0.592172	7.79621	0.52605	4.99814	0.652891	6.24108
0.33288	1.12064	0.120143	2.24356	0.327076	1.18075	0.599411	7.7417	0.529471	4.88549	0.658742	6.31827
0.333921	1.11465	0.122233	2.24318	0.328169	1.16552	0.606597	7.68386	0.53224	4.79254	0.664664	6.39429
0.334957	1.10984	0.124323	2.2428	0.329248	1.15241	0.613729	7.62282	0.534392	4.71923	0.670657	6.4686
0.335989	1.10607	0.126412	2.24247	0.330316	1.1412	0.620802	7.55868	0.535954	4.66549	0.676718	6.54078
0.337018	1.10331	0.128502	2.24211	0.331375	1.13164	0.627814	7.49156	0.536944	4.6312	0.682845	6.61034
0.338045	1.10144	0.13059	2.24176	0.332425	1.12368	0.634761	7.42156	0.538354	4.58212	0.689036	6.67688
0.33907	1.10041	0.132679	2.24147	0.333468	1.11713	0.641643	7.34871	0.53987	4.52907	0.695287	6.7401
0.340095	1.1001	0.134767	2.24118	0.334506	1.11177	0.648455	7.2731	0.541903	4.45733	0.701595	6.79966
0.34112	1.10045	0.136855	2.24085	0.33554	1.10755	0.655195	7.19491	0.544428	4.36741	0.707957	6.85536
0.342146	1.10143	0.138943	2.24057	0.33657	1.10442	0.661862	7.11412	0.547413	4.26008	0.714369	6.907
0.343172	1.10295	0.14103	2.24036	0.337598	1.10219	0.668452	7.03083	0.550821	4.13633	0.720828	6.95445
0.344201	1.10498	0.143117	2.24011	0.338624	1.10075	0.674963	6.94518	0.55461	3.99757	0.727328	6.99757
0.345232	1.10749	0.145204	2.23984	0.339649	1.10014	0.681393	6.85723	0.55827	3.86253	0.733867	7.03636
0.346265	1.11039	0.147291	2.23963	0.340674	1.10023	0.687741	6.76709	0.561807	3.73161	0.74044	7.07079
0.347301	1.11369	0.149378	2.23938	0.341699	1.10094	0.694003	6.67486	0.565224	3.60507	0.747042	7.10084
0.34834	1.11738	0.151464	2.23918	0.342726	1.10221	0.700179	6.58064	0.568525	3.48306	0.753671	7.12659
0.349383	1.1213	0.15355	2.23901	0.343753	1.10402	0.706265	6.48461	0.571714	3.3657	0.760322	7.14806
0.350429	1.12556	0.155636	2.23877	0.344783	1.10635	0.712262	6.3869	0.574796	3.253	0.766991	7.1653
0.35148	1.13012	0.157722	2.23859	0.345815	1.10909	0.718167	6.28757	0.577776	3.14505	0.773674	7.17837
0.352535	1.13492	0.159807	2.23842	0.346849	1.11222	0.723978	6.18684	0.580657	3.04182	0.780367	7.18746
0.353595	1.13992	0.161893	2.23826	0.347887	1.11572	0.729695	6.08491	0.583444	2.94318	0.787067	7.19253
0.354659	1.14506	0.163978	2.23807	0.348928	1.11956	0.735317	5.98191	0.586141	2.84911	0.793769	7.19374
0.355729	1.15045	0.166063	2.2379	0.349973	1.12368	0.740842	5.87808	0.588753	2.75945	0.800472	7.19117
0.356803	1.15603	0.168148	2.23778	0.351022	1.12812	0.745577	5.787	0.591283	2.67412	0.807169	7.18485
0.357883	1.1617	0.170233	2.23761	0.352075	1.13279	0.749556	5.709	0.593736	2.59296	0.81386	7.17493
0.358968	1.16754	0.172318	2.23746	0.353133	1.13769	0.752805	5.64441	0.596115	2.51584	0.820539	7.16153
0.360058	1.17351	0.174402	2.2373	0.354195	1.14281	0.755347	5.59319	0.598424	2.4426	0.827204	7.14469
0.361154	1.17952	0.176487	2.23719	0.355263	1.14812	0.757202	5.55545	0.600666	2.37305	0.833852	7.12441
0.362114	1.18491	0.178571	2.23706	0.356335	1.1536	0.758383	5.53138	0.602846	2.30708	0.84048	7.10093
0.362936	1.18955	0.180655	2.23692	0.357412	1.15919	0.760071	5.49677	0.604965	2.2445	0.847084	7.07424
0.363618	1.19337	0.182739	2.23682	0.358495	1.16499	0.761894	5.45908	0.607028	2.1852	0.853662	7.04439
0.364159	1.19645	0.184823	2.23669	0.359583	1.17089	0.764352	5.40787	0.609037	2.129	0.860211	7.01156
0.364557	1.19874	0.186907	2.23659	0.360677	1.17688	0.767429	5.34317	0.610995	2.0757	0.866727	6.97571
0.364813	1.20015	0.188991	2.23647	0.361776	1.18303	0.7711	5.26509	0.612905	2.02521	0.873209	6.93696
0.36518	1.20225	0.191075	2.23637	0.362881	1.18921	0.775338	5.17377	0.614769	1.97745	0.879654	6.89544
0.365581	1.20457	0.193158	2.23625	0.363992	1.19549	0.780109	5.06964	0.61659	1.93218	0.886058	6.85113
0.366126	1.20768	0.195242	2.23615	0.365109	1.20189	0.784784	4.9662	0.618369	1.88925	0.89242	6.8042
0.366819	1.21171	0.197325	2.23606	0.366232	1.20831	0.789363	4.86365	0.62011	1.84864	0.898737	6.75471
0.367659	1.21652	0.199408	2.23595	0.36736	1.21478	0.793847	4.76224	0.621814	1.8102	0.905007	6.70276
0.368649	1.22223	0.201491	2.23589	0.368495	1.22135	0.798237	4.66202	0.623483	1.77381	0.911227	6.64844
0.369791	1.22879	0.203575	2.23579	0.369636	1.22793	0.802534	4.56313	0.62512	1.73936	0.917395	6.59181
0.370939	1.23541	0.205658	2.2357	0.370783	1.23452	0.80674	4.46575	0.626724	1.70675	0.92351	6.53297
0.372093	1.24208	0.207741	2.23562	0.371937	1.24114	0.810856	4.36993	0.6283	1.6759	0.929569	6.47218
0.373253	1.24872	0.209823	2.23551	0.373096	1.24782	0.814883	4.27576	0.629847	1.64668	0.934802	6.41758
0.37442	1.2554	0.211906	2.23545	0.374262	1.25453	0.818823	4.18331	0.631368	1.61899	0.939227	6.36992
0.375593	1.26215	0.213989	2.23538	0.375434	1.26122	0.822678	4.0927	0.632864	1.59284	0.942861	6.32989
0.376772	1.26882	0.216072	2.23532	0.376612	1.26793	0.826449	4.00396	0.634336	1.56808	0.945719	6.29763
0.377957	1.27553	0.218154	2.23524	0.377796	1.27466	0.830139	3.91707	0.635786	1.54468	0.94781	6.27367
0.379148	1.28228	0.220237	2.23514	0.378987	1.28135	0.833749	3.83217	0.637215	1.52251	0.949145	6.2583
0.380346	1.289	0.222319	2.23508	0.380184	1.28807	0.83728	3.74926	0.638623	1.50153	0.951057	6.23596
0.38155	1.29568	0.224402	2.23505	0.381387	1.2948	0.840735	3.66832	0.640013	1.48174	0.953128	6.21144
0.382761	1.3024	0.226484	2.23497	0.382597	1.30146	0.844115	3.58937	0.641384	1.46302	0.955931	6.17786
0.383977	1.30909	0.228566	2.23489	0.383812	1.30816	0.847423	3.51242	0.642739	1.44531	0.959455	6.13494
0.3852	1.31576	0.230648	2.23481	0.385034	1.31488	0.85066	3.43752	0.644077	1.42855	0.963683	6.08241
0.386429	1.3224	0.23273	2.23477	0.386263	1.32153	0.853829	3.36461	0.645401	1.41273	0.968596	6.01989
0.387664	1.32905	0.234813	2.23472	0.387497	1.32815	0.85693	3.29363	0.64671	1.39779	0.974171	5.94713
0.388906	1.33567	0.236895	2.23465	0.388737	1.33476	0.859966	3.22463	0.648005	1.38373	0.979678	5.87347
0.390153	1.34224	0.238977	2.23462	0.389984	1.34136	0.862939	3.15761	0.649288	1.37044	0.985116	5.79896
0.391407	1.34886	0.241059	2.23457	0.391237	1.34796	0.86585	3.09246	0.650559	1.35786	0.990484	5.72376
0.392666	1.35539	0.243141	2.2345	0.392496	1.35448	0.868701	3.02919	0.651818	1.346	0.995781	5.64801
0.393932	1.36187	0.245222	2.23444	0.393761	1.361	0.871494	2.96779	0.653067	1.33484	1.00101	5.60996
0.395204	1.36838	0.247304	2.2344	0.395032	1.36752	0.874231	2.90819	0.654306	1.32435		
0.396482	1.37482	0.249386	2.23435	0.396309	1.37396	0.876913	2.85041	0.655535	1.31449		
0.397766	1.38126	0.251468	2.23428	0.397592	1.38037	0.879543	2.79439	0.656755	1.30517		
0.399056	1.38763	0.253549	2.23425	0.398881	1.38676	0.882121	2.74001	0.657967	1.2964		
0.400352	1.39396	0.255631	2.2342	0.400176	1.39314	0.884648	2.68737	0.659171	1.28821		
0.401653	1.40032	0.257712	2.23414	0.401477	1.39945	0.887128	2.63636	0.660367	1.28049		
0.402961	1.40661	0.259794	2.23411	0.402784	1.40575	0.889561	2.58691	0.661557	1.27326		
0.404274	1.41283	0.261875	2.23409	0.404097	1.41201	0.891949	2.53901	0.66274	1.2665		
0.405594	1.41901	0.263957	2.23405	0.405415	1.41818	0.894292	2.49264	0.663917	1.26019		
0.406919	1.42522	0.266038	2.23399	0.406739	1.42434	0.896593	2.44781	0.665088	1.25428		
0.408249	1.43132	0.26812	2.23392	0.408069	1.4305	0.898853	2.40434	0.666254	1.24877		
0.409586	1.43738	0.270201	2.23389	0.409405	1.43658	0.901074	2.36228	0.667415	1.24363		
0.410928	1.44345	0.272282	2.23387	0.410746	1.44263	0.903255	2.32163	0.668572	1.23886		
0.412275	1.44948	0.274364	2.23383	0.412093	1.44865	0.9054	2.28222	0.669724	1.23447		
0.413629	1.45543	0.276445	2.2338	0.413445	1.45463	0.907508	2.24413	0.670872	1.2304		
0.414988	1.46134	0.278526	2.23376	0.414804	1.46055	0.909581	2.20729	0.672016	1.22661		
0.416352	1.46722	0.280607	2.23373	0.416167	1.46644	0.911621	2.17165	0.673157	1.22314		
0.417722	1.47305	0.282688	2.23368	0.417536	1.47227	0.913628	2.13721	0.674296	1.21998		
0.419097	1.47886	0.284769	2.23366	0.41891	1.47805	0.915603	2.10388	0.675431	1.21704		
0.420477	1.48459	0.286851	2.23365	0.42029	1.48383	0.917548	2.07165	0.676563	1.2144		
0.421863	1.49031	0.288932	2.23357	0.421675	1.48954	0.919464	2.04048	0.677694	1.21202		
0.423254	1.49598	0.291013	2.23356	0.423066	1.49522	0.921351	2.01036	0.678822	1.20991		
0.424651	1.50157	0.293094	2.23353	0.424462	1.50084	0.92321	1.98127	0.679948	1.20798		
0.426052	1.50715	0.295174	2.23347	0.425863	1.50639	0.925042	1.9531	0.681073	1.20624		
0.427459	1.51272	0.297255	2.23348	0.427269	1.51196	0.926849	1.92591	0.682196	1.20479		
0.428871	1.51821	0.299336	2.23345	0.42868	1.51745	0.928631	1.89964	0.683318	1.20351		
0.430288	1.52364	0.301417	2.23339	0.430096	1.5229	0.930389	1.8742	0.684439	1.20244		
0.43171	1.52902	0.303498	2.23337	0.431518	1.52834	0.932123	1.84966	0.685558	1.20153		
0.433137	1.53438	0.305579	2.23335	0.432944	1.53366	0.933836	1.82596	0.686677	1.20079		
0.434569	1.5397	0.30766	2.23331	0.434375	1.53899	0.935526	1.80301	0.687796	1.20019		
0.436006	1.54496	0.30974	2.23329	0.435812	1.54429	0.937195	1.78088	0.688914	1.19982		
0.437448	1.55019	0.311821	2.23328	0.437253	1.54947	0.938844	1.75949	0.690032	1.1996		
0.438895	1.55541	0.313902	2.23324	0.438699	1.55466	0.940474	1.73879	0.691149	1.19949		
0.440347	1.56054	0.315982	2.23322	0.44015	1.55986	0.942084	1.71885	0.692267	1.19955		
0.441803	1.5656	0.318063	2.23321	0.441606	1.56494	0.943677	1.69958	0.693384	1.19972		
0.443264	1.57069	0.320144	2.23316	0.443066	1.56998	0.945251	1.68093	0.694502	1.20003		
0.44473	1.57569	0.322224	2.23314	0.444531	1.57502	0.946809	1.66293	0.695621	1.20047		
0.4462	1.58065	0.324305	2.23313	0.446001	1.58	0.94835	1.64558	0.696739	1.20103		
0.447675	1.58561	0.326386	2.23309	0.447475	1.58494	0.949875	1.62881	0.697859	1.20171		
0.449155	1.59048	0.328466	2.23307	0.448954	1.58983	0.951385	1.61259	0.698979	1.20252		
0.450639	1.59529	0.330547	2.23302	0.450438	1.59465	0.95288	1.59694	0.700099	1.2034		
0.452127	1.60011	0.332627	2.233	0.451926	1.59948	0.954361	1.58186	0.701221	1.20436		
0.45362	1.6049	0.334708	2.23302	0.453418	1.60424	0.955828	1.56729	0.702343	1.20546		
0.455118	1.60961	0.336788	2.233	0.454915	1.60892	0.957281	1.55323	0.703467	1.20667		
0.45662	1.61423	0.338869	2.23295	0.456416	1.61365	0.958722	1.53964	0.704592	1.20793		
0.458126	1.61888	0.340949	2.23293	0.457922	1.61828	0.96015	1.52652	0.705718	1.20926		
0.459636	1.62352	0.343029	2.23291	0.459432	1.62287	0.961567	1.51387	0.706845	1.21069		
0.461151	1.62803	0.34511	2.23291	0.460946	1.62743	0.962971	1.50166	0.707974	1.21225		
0.46267	1.63256	0.34719	2.23291	0.462464	1.63195	0.964365	1.48987	0.709104	1.21384		
0.464193	1.63706	0.349271	2.23287	0.463987	1.63644	0.965748	1.47852	0.710236	1.21547		
0.46572	1.64147	0.351351	2.23285	0.465514	1.64088	0.96712	1.46757	0.711369	1.2172		
0.467252	1.64583	0.353431	2.23284	0.467045	1.64526	0.968482	1.45701	0.712504	1.21899		
0.468787	1.65021	0.355512	2.2328	0.468579	1.64962	0.969835	1.44682	0.713641	1.22083		
0.470327	1.65456	0.357592	2.23278	0.470118	1.65395	0.971178	1.437	0.714779	1.22278		
0.47187	1.65879	0.359672	2.23277	0.471661	1.65824	0.972513	1.42751	0.715919	1.22478		
0.473418	1.66303	0.361752	2.23272	0.473208	1.66248	0.973838	1.41838	0.717061	1.2268		
0.474969	1.66727	0.363832	2.2327	0.474759	1.66668	0.975156	1.4096	0.718205	1.22887		
0.476525	1.67141	0.365913	2.23273	0.476314	1.67087	0.976465	1.4011	0.719351	1.23101		
0.478084	1.67552	0.367993	2.23271	0.477873	1.67498	0.977766	1.39294	0.720499	1.23318		
0.479647	1.67963	0.370073	2.23269	0.479435	1.67909	0.97906	1.38509	0.721649	1.2354		
0.481213	1.68367	0.372153	2.23265	0.481002	1.68312	0.980347	1.3775	0.722801	1.23768		
0.482784	1.6877	0.374233	2.23263	0.482572	1.68714	0.981627	1.37019	0.723955	1.24003		
0.484358	1.69169	0.376314	2.23266	0.484145	1.69114	0.9829	1.3632	0.725112	1.24237		
0.485936	1.69563	0.378394	2.23263	0.485723	1.69507	0.984167	1.35645	0.72627	1.24475		
0.487518	1.6995	0.380474	2.23258	0.487304	1.69902	0.985428	1.34992	0.727431	1.24719		
0.489103	1.70338	0.382554	2.23256	0.488889	1.70286	0.986683	1.34373	0.728594	1.24965		
0.490692	1.70726	0.384634	2.23258	0.490477	1.70669	0.987932	1.3377	0.72976	1.25217		
0.492284	1.71103	0.386714	2.23256	0.492069	1.71054	0.989176	1.3319	0.730927	1.2547		
0.49388	1.71478	0.388794	2.23251	0.493664	1.7143	0.990414	1.32641	0.732098	1.25726		
0.49548	1.71853	0.390874	2.23252	0.495263	1.71801	0.991647	1.32106	0.73327	1.25981		
0.497083	1.72223	0.392954	2.23253	0.496866	1.72173	0.992875	1.31593	0.734445	1.26245		
0.498689	1.72591	0.395034	2.2325	0.498472	1.72542	0.994099	1.31106	0.735623	1.26512		
0.500299	1.72955	0.397114	2.23248	0.500081	1.72906	0.995318	1.30635	0.736803	1.26777		
0.501912	1.73312	0.399194	2.23247	0.501693	1.73264	0.996533	1.30184	0.737985	1.27049		
0.503528	1.73667	0.401274	2.23243	0.503309	1.73619	0.997744	1.29753	0.73917	1.27321		
0.505148	1.74024	0.403354	2.23241	0.504929	1.73975	0.998951	1.2934	0.740357	1.27592		
0.506771	1.74374	0.405434	2.23244	0.506551	1.74326	1.00015	1.29136	0.741548	1.2787		
