Sym0		Asym0		Sym1		Sym2		Sym3		Sym4		Asym1		Asym2		Asym3		Asym4	
530  Points		531  Points		420  Points		155  Points		142  Points		108  Points		485  Points		301  Points		150  Points		115  Points	
Freq (MHz)	Vgr (m/ms)	Freq (MHz)	Vgr (m/ms)	Freq (MHz)	Vgr (m/ms)	Freq (MHz)	Vgr (m/ms)	Freq (MHz)	Vgr (m/ms)	Freq (MHz)	Vgr (m/ms)	Freq (MHz)	Vgr (m/ms)	Freq (MHz)	Vgr (m/ms)	Freq (MHz)	Vgr (m/ms)	Freq (MHz)	Vgr (m/ms)
0.00335833	7.57195	0.000354173	0.458556	0.166324	-0.00799246	0.279548	0.202882	0.498968	-0.027969	0.559017	0.0561608	0.139768	0.244834	0.332647	-0.0148434	0.419265	0.0806283	0.665292	-0.0482408
0.00814725	7.57156	0.00064419	0.524399	0.166319	-0.0132623	0.279676	0.273131	0.498951	-0.0392956	0.559053	0.100665	0.139923	0.379355	0.332637	-0.0217209	0.419316	0.131529	0.665261	-0.0709151
0.0129357	7.57047	0.00101749	0.653997	0.166307	-0.0236337	0.279893	0.413271	0.498919	-0.0617088	0.559145	0.189551	0.140248	0.647142	0.332619	-0.0353618	0.419432	0.233219	0.665202	-0.115632
0.0177232	7.56882	0.00147144	0.779228	0.166289	-0.0335007	0.280199	0.552681	0.498872	-0.0835751	0.559293	0.278072	0.140742	0.911942	0.332592	-0.0486604	0.419611	0.334571	0.665115	-0.158887
0.0225096	7.56663	0.00200315	0.89944	0.166265	-0.0426176	0.280593	0.69115	0.498813	-0.104779	0.559497	0.366035	0.141402	1.17258	0.332558	-0.0614468	0.419855	0.435422	0.665001	-0.200254
0.0272943	7.5639	0.00260915	1.0141	0.166235	-0.0508388	0.281073	0.828341	0.49874	-0.125176	0.559756	0.453142	0.142225	1.42799	0.332515	-0.0736406	0.420162	0.535616	0.664861	-0.23931
0.0320772	7.56051	0.00328589	1.12283	0.1662	-0.0578727	0.28164	0.964185	0.498654	-0.144563	0.56007	0.539312	0.143208	1.6772	0.332464	-0.0850806	0.420533	0.635013	0.664698	-0.275732
0.0368577	7.55641	0.00402943	1.22532	0.166162	-0.0634813	0.282293	1.09846	0.498557	-0.162794	0.560438	0.624472	0.144346	1.91943	0.332407	-0.0956174	0.420965	0.733507	0.664513	-0.309302
0.0416354	7.55158	0.00483582	1.32146	0.16612	-0.0675344	0.28303	1.23088	0.498449	-0.179834	0.56086	0.708389	0.145636	2.15408	0.332343	-0.105211	0.42146	0.830971	0.664307	-0.339758
0.0464098	7.54587	0.00570096	1.4112	0.166076	-0.0698573	0.28385	1.36141	0.49833	-0.19553	0.561334	0.790942	0.147071	2.38048	0.332274	-0.113781	0.422017	0.927326	0.664083	-0.367005
0.0511803	7.53913	0.00662086	1.49451	0.166032	-0.0701009	0.284752	1.48981	0.498201	-0.209744	0.56186	0.872063	0.148647	2.59826	0.3322	-0.121166	0.422633	1.02241	0.663843	-0.391116
0.0559461	7.53126	0.00759139	1.57154	0.165988	-0.0680849	0.285734	1.61593	0.498064	-0.222463	0.562437	0.951698	0.150358	2.80722	0.332121	-0.127306	0.42331	1.11617	0.663588	-0.412061
0.0607066	7.52207	0.00860871	1.64255	0.165946	-0.0636214	0.286796	1.73972	0.49792	-0.233659	0.563064	1.02975	0.152198	3.0072	0.332039	-0.132163	0.424045	1.20856	0.663322	-0.42987
0.0654609	7.51128	0.00966907	1.70768	0.165907	-0.0564207	0.287935	1.86103	0.497769	-0.243275	0.56374	1.10617	0.154162	3.19801	0.331954	-0.135661	0.424839	1.29943	0.663044	-0.444686
0.0702077	7.49869	0.0107688	1.76723	0.165874	-0.0461625	0.28915	1.97978	0.497612	-0.251286	0.564463	1.1809	0.156243	3.37973	0.331867	-0.137737	0.425689	1.38881	0.662759	-0.456622
0.074946	7.48386	0.0119045	1.82152	0.165849	-0.032465	0.290439	2.09591	0.497451	-0.257641	0.565233	1.25397	0.158437	3.55248	0.331779	-0.138351	0.426595	1.47659	0.662467	-0.465821
0.0796742	7.46628	0.0130728	1.87081	0.165833	-0.0149966	0.291801	2.20941	0.497286	-0.262409	0.566049	1.32536	0.160737	3.71639	0.331692	-0.13742	0.427557	1.56272	0.66217	-0.472479
0.0843902	7.44545	0.0142709	1.9155	0.16583	0.00690633	0.293234	2.32013	0.497119	-0.265558	0.56691	1.39504	0.163138	3.87164	0.331606	-0.134955	0.428572	1.6473	0.661869	-0.476732
0.089092	7.42055	0.0154958	1.95587	0.165842	0.0338805	0.294736	2.42807	0.49695	-0.267108	0.567814	1.46309	0.165634	4.0185	0.331521	-0.130974	0.42964	1.73013	0.661567	-0.478765
0.0937766	7.39051	0.0167449	1.99225	0.165873	0.0667676	0.296305	2.5333	0.496781	-0.267102	0.56876	1.52945	0.168221	4.15718	0.33144	-0.125342	0.43076	1.81129	0.661264	-0.478687
0.0984403	7.354	0.0180158	2.02494	0.165926	0.106819	0.29794	2.63568	0.496612	-0.265536	0.569748	1.59415	0.170892	4.2879	0.331363	-0.118049	0.431931	1.89083	0.660961	-0.476631
0.103079	7.30919	0.0193062	2.05426	0.166008	0.155504	0.299639	2.73523	0.496445	-0.262489	0.570777	1.65736	0.173644	4.41097	0.331291	-0.109073	0.433152	1.96868	0.660661	-0.472866
0.107686	7.25359	0.0206142	2.08051	0.166123	0.214979	0.3014	2.83204	0.49628	-0.25795	0.571845	1.71893	0.176472	4.52669	0.331225	-0.098458	0.434422	2.0448	0.660363	-0.467408
0.112254	7.18374	0.0219379	2.10393	0.16628	0.287751	0.303221	2.92604	0.496119	-0.25198	0.572951	1.77899	0.17937	4.63521	0.331166	-0.0861192	0.435739	2.1192	0.66007	-0.460375
0.116773	7.09487	0.0232755	2.12479	0.166457	0.364904	0.305101	3.01721	0.495962	-0.244613	0.574095	1.83765	0.182335	4.73694	0.331116	-0.0719722	0.437102	2.19202	0.659781	-0.452006
0.121228	6.9804	0.0246256	2.14329	0.166646	0.443632	0.307038	3.10562	0.49581	-0.235923	0.575276	1.89481	0.185362	4.83198	0.331075	-0.0560214	0.438511	2.26318	0.659498	-0.442346
0.125602	6.83113	0.0259866	2.15975	0.166832	0.519823	0.30903	3.1913	0.495663	-0.225879	0.576492	1.95061	0.188447	4.92055	0.331045	-0.0381894	0.439965	2.33264	0.659221	-0.431399
0.129869	6.63445	0.0273575	2.17427	0.167002	0.588441	0.311075	3.27427	0.495524	-0.214508	0.577743	2.00506	0.191586	5.00292	0.331027	-0.0184941	0.441462	2.40052	0.658952	-0.419345
0.133994	6.37401	0.0287369	2.18701	0.16714	0.644357	0.313171	3.35451	0.495392	-0.201867	0.579028	2.05821	0.194775	5.07918	0.331021	0.00320157	0.443001	2.4668	0.658691	-0.406286
0.137932	6.03025	0.0301238	2.19834	0.167236	0.683316	0.315318	3.43202	0.495268	-0.187977	0.580347	2.11012	0.198011	5.14961	0.331031	0.0270854	0.444582	2.53152	0.658438	-0.392251
0.141622	5.58477	0.031338	2.20706	0.167384	0.74385	0.317512	3.50686	0.495154	-0.172887	0.581697	2.16077	0.200865	5.20632	0.331056	0.0531011	0.446204	2.59467	0.658195	-0.377303
0.144996	5.02976	0.0323766	2.21374	0.16756	0.816003	0.319754	3.57902	0.49505	-0.156604	0.58308	2.21027	0.203322	5.25119	0.331098	0.0813955	0.447864	2.65623	0.657961	-0.361476
0.147984	4.3811	0.0332376	2.21874	0.167827	0.926371	0.32204	3.6486	0.494956	-0.139143	0.584493	2.25862	0.205369	5.28598	0.331159	0.112262	0.449563	2.71624	0.657737	-0.34484
0.150537	3.68575	0.0339198	2.22234	0.168215	1.0884	0.324369	3.71551	0.494874	-0.120449	0.585937	2.30585	0.206997	5.31185	0.33124	0.145769	0.4513	2.77482	0.657525	-0.327452
0.152646	3.01009	0.0344221	2.22497	0.168777	1.32429	0.326739	3.77976	0.494804	-0.100582	0.58741	2.35206	0.208199	5.33005	0.331343	0.182054	0.453073	2.83189	0.657323	-0.309333
0.154345	2.4131	0.0347438	2.22652	0.16959	1.66721	0.32915	3.84146	0.494747	-0.0795793	0.588912	2.39717	0.20897	5.34135	0.33147	0.22148	0.454882	2.88743	0.657133	-0.290533
0.155699	1.92537	0.0352067	2.22863	0.170783	2.159	0.331598	3.90054	0.494703	-0.0573406	0.590442	2.44122	0.210082	5.35683	0.331623	0.264337	0.456726	2.94153	0.656956	-0.271059
0.15678	1.54834	0.0357104	2.23087	0.172321	2.75759	0.334084	3.95698	0.494674	-0.0339245	0.592	2.48435	0.211294	5.37303	0.331805	0.310862	0.458603	2.99415	0.656791	-0.250927
0.157657	1.26643	0.0363961	2.23358	0.174271	3.44168	0.336604	4.01082	0.49466	-0.00927564	0.593584	2.52651	0.212948	5.39391	0.332016	0.361445	0.460513	3.04537	0.656638	-0.230172
0.158382	1.05928	0.0372645	2.23687	0.176675	4.1576	0.339157	4.06197	0.494662	0.0166302	0.595196	2.56766	0.215048	5.41824	0.332262	0.416605	0.462455	3.09513	0.656499	-0.208774
0.158997	0.908239	0.0383164	2.2405	0.17953	4.83818	0.341742	4.11049	0.494681	0.0438416	0.596832	2.60793	0.217601	5.4448	0.332543	0.476774	0.464428	3.1434	0.656374	-0.186779
0.159531	0.798383	0.0395523	2.24415	0.182795	5.43012	0.344356	4.15635	0.494718	0.0723694	0.598494	2.64728	0.220609	5.47172	0.332865	0.542561	0.466431	3.1903	0.656263	-0.164196
0.160007	0.71885	0.0409729	2.24776	0.186399	5.91042	0.346999	4.19947	0.494773	0.102235	0.600181	2.68569	0.224079	5.49699	0.33323	0.614662	0.468464	3.23576	0.656167	-0.140954
0.16044	0.661638	0.0423955	2.25087	0.190271	6.28302	0.349668	4.23987	0.494847	0.133569	0.601891	2.72323	0.227563	5.51609	0.333642	0.693695	0.470524	3.27981	0.656085	-0.117085
0.160844	0.621014	0.04382	2.25341	0.194346	6.56574	0.352362	4.27744	0.494942	0.166456	0.603626	2.75991	0.231056	5.52862	0.334107	0.78055	0.472612	3.32241	0.656018	-0.0926525
0.161226	0.592937	0.0452459	2.25546	0.198576	6.77879	0.355079	4.31217	0.495058	0.200899	0.605383	2.79571	0.234556	5.53416	0.33463	0.876228	0.474727	3.36352	0.655968	-0.0675252
0.161594	0.574332	0.046673	2.25713	0.202921	6.9399	0.357817	4.344	0.495196	0.236983	0.607162	2.83062	0.238057	5.5323	0.335216	0.981614	0.476867	3.40327	0.655933	-0.0417845
0.161952	0.563102	0.048101	2.25848	0.207354	7.06293	0.360574	4.37279	0.495357	0.274884	0.608963	2.8647	0.241554	5.52257	0.335871	1.09752	0.479032	3.44151	0.655915	-0.0154212
0.162306	0.55756	0.0495297	2.25951	0.211855	7.15798	0.363348	4.39851	0.495543	0.314606	0.610785	2.89792	0.245042	5.50424	0.336505	1.20798	0.48122	3.47828	0.655914	0.0116693
0.162658	0.556403	0.050959	2.26019	0.216408	7.2323	0.366137	4.42104	0.495755	0.35633	0.612629	2.93025	0.248516	5.47669	0.337096	1.30978	0.483431	3.51359	0.65593	0.0394374
0.162965	0.558354	0.0523887	2.2607	0.221003	7.29117	0.36894	4.44029	0.495994	0.400243	0.614492	2.96178	0.25197	5.43914	0.337622	1.39948	0.485664	3.54734	0.655963	0.0679564
0.163228	0.561797	0.0538186	2.26096	0.225631	7.33843	0.371754	4.45619	0.496262	0.446379	0.616375	2.99237	0.255396	5.39067	0.338063	1.47431	0.487918	3.57962	0.656016	0.0972868
0.163446	0.565701	0.0552486	2.26105	0.230286	7.37665	0.374577	4.46846	0.496559	0.494888	0.618277	3.02215	0.258788	5.33031	0.338402	1.53143	0.490192	3.61036	0.656086	0.127377
0.163621	0.569512	0.0566786	2.261	0.234962	7.40789	0.377406	4.47722	0.496888	0.546073	0.620198	3.05105	0.262139	5.25706	0.338626	1.56915	0.492485	3.63947	0.656177	0.158295
0.16375	0.572456	0.0581086	2.26072	0.239656	7.43369	0.379875	4.4818	0.49725	0.600017	0.622136	3.07907	0.265438	5.16989	0.338958	1.62499	0.494796	3.66695	0.656287	0.190094
0.163833	0.57441	0.0595383	2.26041	0.244365	7.45514	0.381982	4.48327	0.497647	0.656894	0.624092	3.1062	0.268678	5.06779	0.339332	1.6874	0.497123	3.69282	0.656417	0.22279
0.163952	0.577596	0.0609678	2.25999	0.249086	7.47298	0.383724	4.48278	0.49808	0.716959	0.626065	3.1324	0.271848	4.94984	0.339864	1.77571	0.499467	3.71703	0.656569	0.256503
0.164083	0.581248	0.0623969	2.25944	0.253818	7.48799	0.3851	4.4814	0.498553	0.780464	0.628055	3.15771	0.274939	4.81542	0.340576	1.89274	0.501825	3.73947	0.656742	0.291217
0.164263	0.586408	0.0638258	2.25882	0.258558	7.50063	0.386113	4.4796	0.499068	0.847571	0.63006	3.18209	0.277939	4.66423	0.341499	2.0421	0.504197	3.76018	0.656937	0.32698
0.164492	0.593474	0.0652542	2.25812	0.263305	7.51127	0.38676	4.47813	0.499626	0.918514	0.63208	3.20554	0.280839	4.4964	0.342674	2.22802	0.506581	3.77908	0.657155	0.363893
0.164773	0.602625	0.0666821	2.25743	0.268059	7.52025	0.38769	4.47562	0.50023	0.993591	0.634114	3.22803	0.283627	4.31275	0.344153	2.45454	0.508977	3.79607	0.657397	0.401984
0.165108	0.614015	0.0681096	2.25665	0.272818	7.52772	0.388701	4.47236	0.500882	1.07297	0.636163	3.24953	0.286294	4.1148	0.345779	2.69373	0.511383	3.81114	0.657664	0.441394
0.1655	0.62786	0.0695366	2.25583	0.277581	7.53392	0.390074	4.46701	0.501587	1.15697	0.638225	3.27008	0.288832	3.90478	0.34756	2.94354	0.513798	3.82428	0.657956	0.482064
0.165902	0.642378	0.070963	2.25503	0.282347	7.53909	0.391808	4.45846	0.502346	1.24573	0.640299	3.2896	0.291233	3.68565	0.349502	3.20081	0.516221	3.83538	0.658273	0.524129
0.166313	0.657492	0.072389	2.25415	0.287117	7.54327	0.3939	4.44583	0.503162	1.33952	0.642386	3.30801	0.293494	3.46103	0.351609	3.46202	0.518649	3.84435	0.658618	0.567777
0.166734	0.673033	0.0738143	2.25328	0.291889	7.54653	0.396346	4.42753	0.50404	1.43854	0.644484	3.32541	0.295611	3.23487	0.353881	3.72323	0.521083	3.85118	0.658992	0.612863
0.167164	0.688917	0.0752392	2.25242	0.296663	7.54897	0.399139	4.40186	0.504982	1.54285	0.646592	3.34174	0.297586	3.01113	0.356318	3.98046	0.523521	3.85577	0.659394	0.659618
0.167605	0.705103	0.0766634	2.25151	0.301438	7.55067	0.401914	4.37099	0.505992	1.65264	0.648711	3.35688	0.29942	2.79352	0.358916	4.23022	0.52596	3.85803	0.659826	0.708158
0.168056	0.721525	0.0780871	2.25058	0.306214	7.55165	0.404668	4.33462	0.507073	1.76785	0.650838	3.37092	0.301119	2.58528	0.361669	4.46925	0.528401	3.8579	0.660289	0.758454
0.168518	0.738066	0.0795102	2.24969	0.31099	7.55188	0.407397	4.2927	0.508228	1.88839	0.652975	3.38383	0.30269	2.38889	0.36457	4.69516	0.53084	3.8554	0.660785	0.810621
0.16899	0.754709	0.0809328	2.24881	0.315766	7.55144	0.410098	4.24503	0.509298	1.99775	0.655119	3.39548	0.304141	2.20619	0.367608	4.90642	0.533278	3.85032	0.661315	0.864806
0.169472	0.771489	0.0823548	2.24793	0.320542	7.55026	0.412766	4.1915	0.510259	2.094	0.65727	3.40592	0.305481	2.03828	0.370776	5.10213	0.535711	3.84256	0.661879	0.921128
0.169966	0.788252	0.0837762	2.24707	0.325316	7.54834	0.415399	4.13219	0.511088	2.1757	0.659427	3.41507	0.306719	1.8854	0.374062	5.28189	0.538138	3.83222	0.66248	0.979563
0.170469	0.804963	0.0851971	2.24616	0.33009	7.54574	0.417993	4.06706	0.511767	2.24154	0.661589	3.42292	0.307866	1.74737	0.377457	5.44605	0.540558	3.81914	0.663118	1.04024
0.170984	0.821735	0.0866174	2.24532	0.334861	7.54228	0.420544	3.99622	0.512279	2.29068	0.663756	3.42946	0.30893	1.62376	0.380951	5.59529	0.542969	3.80325	0.663796	1.10325
0.171509	0.83845	0.0880372	2.24446	0.33963	7.53792	0.423048	3.92001	0.512612	2.32248	0.665927	3.43461	0.30992	1.51366	0.384534	5.73041	0.545061	3.78718	0.664514	1.16867
0.172044	0.855008	0.0894565	2.24361	0.344396	7.53263	0.425502	3.83874	0.513099	2.3685	0.668101	3.43835	0.310844	1.41597	0.388199	5.85257	0.546837	3.77164	0.665274	1.23659
0.17259	0.87153	0.0908752	2.24279	0.349158	7.52623	0.427904	3.7528	0.51364	2.4191	0.670276	3.44065	0.311711	1.32966	0.391937	5.9628	0.548299	3.75764	0.666078	1.307
0.173147	0.887991	0.0922934	2.24199	0.353916	7.51863	0.430249	3.66278	0.514394	2.48878	0.672453	3.44146	0.312526	1.25371	0.395742	6.06216	0.549452	3.74578	0.666927	1.38007
0.173714	0.904292	0.0937111	2.2412	0.358669	7.50965	0.432537	3.56957	0.515378	2.57801	0.67463	3.44074	0.313297	1.18699	0.399606	6.15176	0.550297	3.73653	0.667824	1.45576
0.174291	0.92047	0.0951283	2.24042	0.363415	7.49899	0.434765	3.47406	0.516615	2.68742	0.676805	3.43852	0.314028	1.12851	0.403523	6.23255	0.550837	3.73046	0.668769	1.53403
0.174878	0.936544	0.096545	2.23969	0.368154	7.48645	0.436931	3.37719	0.518131	2.81763	0.678979	3.43468	0.314724	1.07739	0.407489	6.30545	0.551611	3.72142	0.669764	1.61505
0.175475	0.952435	0.0979613	2.23893	0.372885	7.47163	0.439036	3.2802	0.519961	2.96876	0.68115	3.42917	0.31539	1.0328	0.411499	6.37129	0.552451	3.71111	0.670812	1.69871
0.176083	0.968193	0.0993771	2.23816	0.377605	7.45408	0.44108	3.18458	0.521887	3.12097	0.683317	3.42202	0.31603	0.99393	0.415548	6.43083	0.553588	3.69654	0.671913	1.7849
0.1767	0.983797	0.100792	2.23743	0.382313	7.43331	0.443065	3.09189	0.523909	3.27338	0.685478	3.41326	0.316648	0.960167	0.419633	6.48469	0.555021	3.67716	0.673069	1.87364
0.177327	0.999195	0.102207	2.23677	0.387008	7.40842	0.444991	3.00385	0.526027	3.4252	0.687634	3.40273	0.317245	0.930942	0.423751	6.53337	0.556743	3.65208	0.674283	1.96488
0.177964	1.01445	0.103622	2.23609	0.391684	7.37854	0.446864	2.9225	0.528241	3.57556	0.689783	3.39047	0.317825	0.905669	0.427898	6.57748	0.558747	3.62052	0.675555	2.05846
0.17861	1.02954	0.105036	2.2354	0.396341	7.3425	0.448688	2.85018	0.53055	3.72359	0.691923	3.37649	0.318391	0.883883	0.432071	6.61744	0.561025	3.58166	0.676887	2.15421
0.179266	1.04451	0.106449	2.23476	0.400972	7.2985	0.450469	2.7896	0.532951	3.8686	0.694053	3.36069	0.318943	0.865222	0.436268	6.65361	0.563278	3.53996	0.67828	2.25198
0.179931	1.05924	0.107862	2.23414	0.405573	7.24434	0.452217	2.7442	0.535443	4.0099	0.696174	3.34317	0.319485	0.849374	0.440487	6.68628	0.565503	3.49542	0.679735	2.35152
0.180606	1.07377	0.109275	2.23352	0.410136	7.17717	0.453941	2.71818	0.538024	4.14693	0.698282	3.32383	0.320018	0.835969	0.444726	6.71578	0.567699	3.44811	0.681055	2.43956
0.18129	1.08821	0.110688	2.23287	0.414651	7.09296	0.455655	2.71678	0.540689	4.27914	0.700378	3.30267	0.320542	0.824735	0.448982	6.7424	0.569864	3.39826	0.682219	2.51549
0.181982	1.10241	0.1121	2.23228	0.419107	6.98646	0.457377	2.74681	0.543436	4.40628	0.70246	3.27978	0.321061	0.81545	0.453254	6.76623	0.571998	3.34602	0.683209	2.57881
0.182684	1.11642	0.113511	2.23173	0.423488	6.85069	0.459129	2.81685	0.546262	4.52802	0.704262	3.25848	0.321574	0.807872	0.457541	6.78748	0.574097	3.2915	0.684009	2.6291
0.183395	1.13024	0.114923	2.23115	0.427773	6.67655	0.46094	2.93745	0.549164	4.64418	0.705788	3.23931	0.322083	0.801839	0.46184	6.80634	0.576161	3.23507	0.684607	2.66609
0.184114	1.14393	0.116334	2.23065	0.431934	6.45323	0.462845	3.12046	0.552137	4.7547	0.707044	3.2227	0.322588	0.797139	0.46615	6.82285	0.578189	3.17698	0.684994	2.68995
0.184842	1.15742	0.117744	2.2301	0.435936	6.16894	0.464887	3.37669	0.555178	4.85954	0.708032	3.20916	0.323091	0.793711	0.47047	6.83711	0.58018	3.11751	0.685556	2.72439
0.185578	1.17068	0.119154	2.22956	0.439737	5.81385	0.467116	3.71145	0.558284	4.95884	0.708755	3.1989	0.323592	0.791435	0.474798	6.8492	0.582132	3.05705	0.686176	2.76169
0.186322	1.18379	0.120564	2.22908	0.44329	5.38551	0.469582	4.1184	0.561451	5.05259	0.709217	3.1922	0.324092	0.790082	0.479134	6.85908	0.584047	2.99587	0.687032	2.81256
0.187075	1.19677	0.121974	2.22853	0.446549	4.89465	0.472326	4.57548	0.564675	5.14094	0.70988	3.18245	0.324591	0.789621	0.483474	6.86679	0.585922	2.93447	0.688137	2.87712
0.187836	1.20952	0.123383	2.22804	0.449481	4.36796	0.475369	5.0473	0.567953	5.22418	0.710597	3.17163	0.325091	0.789951	0.487819	6.87228	0.587758	2.8733	0.689507	2.95514
0.188605	1.22207	0.124792	2.22758	0.452074	3.84277	0.47871	5.4959	0.571283	5.30239	0.711569	3.15658	0.325591	0.79098	0.492167	6.87554	0.589556	2.81272	0.691161	3.04653
0.189382	1.23451	0.126201	2.22714	0.454342	3.35502	0.482321	5.893	0.574661	5.37586	0.712792	3.13702	0.326091	0.792702	0.496516	6.87644	0.591316	2.75334	0.693121	3.15109
0.190167	1.24673	0.127609	2.2267	0.456318	2.92829	0.486164	6.2256	0.578083	5.44474	0.71426	3.11269	0.326593	0.795031	0.500865	6.87482	0.593039	2.69556	0.695147	3.25495
0.190959	1.2588	0.129018	2.22622	0.458046	2.57077	0.490196	6.4941	0.581548	5.50926	0.715968	3.08315	0.327097	0.797792	0.505212	6.87056	0.594726	2.6399	0.697238	3.35776
0.191759	1.27066	0.130425	2.22581	0.45957	2.27902	0.494379	6.70638	0.585052	5.56971	0.717907	3.04792	0.327603	0.801072	0.509556	6.86342	0.596378	2.58705	0.699394	3.45936
0.192566	1.28237	0.131833	2.22543	0.460929	2.04364	0.498679	6.87273	0.588593	5.62617	0.719823	3.01149	0.32811	0.804826	0.513894	6.85312	0.597998	2.53749	0.701614	3.55936
0.193381	1.29393	0.13324	2.22498	0.462155	1.85404	0.503072	7.00303	0.592168	5.67892	0.721716	2.99299	0.328621	0.808862	0.518225	6.83933	0.599588	2.49186	0.703897	3.65749
0.194203	1.30531	0.134647	2.22454	0.463274	1.70064	0.507537	7.1056	0.595776	5.72808			0.329133	0.813296	0.522545	6.8217	0.60115	2.45079	0.706241	3.75363
0.195032	1.31653	0.136054	2.22419	0.464306	1.57538	0.51206	7.18692	0.599414	5.77389			0.329649	0.818103	0.526853	6.79967	0.602688	2.41502	0.708645	3.8475
0.195868	1.32754	0.137461	2.22385	0.465267	1.47214	0.516628	7.25197	0.60308	5.81648			0.330168	0.823139	0.531146	6.77265	0.604205	2.38531	0.711107	3.93897
0.196711	1.33843	0.138867	2.22346	0.466168	1.38612	0.521233	7.30447	0.606771	5.85594			0.330691	0.828376	0.53542	6.73993	0.605705	2.3626	0.713627	4.02786
0.197561	1.34919	0.140273	2.22305	0.46702	1.31372	0.525868	7.34725	0.610487	5.89242			0.331216	0.833886	0.539672	6.70065	0.607194	2.34784	0.716202	4.11404
