Sym0		Asym0		Sym1		Sym2		Sym3		Sym4		Asym1		Asym2		Asym3		Asym4	
538  Points		538  Points		433  Points		184  Points		171  Points		130  Points		491  Points		328  Points		177  Points		132  Points	
Freq (MHz)	Vph (m/ms)	Freq (MHz)	Vph (m/ms)	Freq (MHz)	Vph (m/ms)	Freq (MHz)	Vph (m/ms)	Freq (MHz)	Vph (m/ms)	Freq (MHz)	Vph (m/ms)	Freq (MHz)	Vph (m/ms)	Freq (MHz)	Vph (m/ms)	Freq (MHz)	Vph (m/ms)	Freq (MHz)	Vph (m/ms)
0.00317463	6.32499	0.000154819	0.119088	0.167473	2420.95	0.279535	491.96	0.502419	4535.59	0.559017	38826.1	0.139764	555.52	0.334942	558.574	0.419279	797.743	0.669889	2376.82
0.00717478	6.32489	0.000341356	0.17664	0.167469	238.685	0.279625	232.892	0.502409	675.982	0.559041	864.246	0.139873	158.219	0.334929	271.837	0.419344	362.116	0.669856	732.645
0.0111744	6.32457	0.00059952	0.233736	0.167458	125.522	0.279779	152.625	0.502382	365.187	0.55911	437.04	0.140103	92.3854	0.334906	179.618	0.419457	234.269	0.66979	433.029
0.0151733	6.32409	0.000928004	0.290237	0.16744	85.1443	0.279998	113.563	0.50234	250.152	0.559224	292.517	0.140453	65.3585	0.334875	134.111	0.419617	173.185	0.66969	307.309
0.0191712	6.3235	0.00132518	0.346012	0.167416	64.4155	0.28028	90.4705	0.502283	190.216	0.559382	219.864	0.140922	50.6655	0.334834	106.994	0.419826	137.404	0.669558	238.136
0.0231678	6.32276	0.00178908	0.400931	0.167386	51.7988	0.280626	75.225	0.502211	153.438	0.559586	176.154	0.141508	41.4508	0.334786	88.9934	0.420083	113.91	0.669396	194.359
0.0271628	6.32186	0.00231767	0.454912	0.16735	43.311	0.281034	64.4139	0.502125	128.569	0.559833	146.971	0.142209	35.1452	0.334729	76.1722	0.420386	97.3045	0.669205	164.159
0.0311559	6.32081	0.00290848	0.507834	0.167309	37.2098	0.281505	56.3529	0.502025	110.628	0.560124	126.109	0.143023	30.5684	0.334664	66.5757	0.420737	84.9497	0.668988	142.065
0.0351468	6.31959	0.00355898	0.559616	0.167263	32.6124	0.282037	50.1145	0.501912	97.0738	0.560457	110.456	0.143947	27.1023	0.334593	59.1228	0.421133	75.4013	0.668747	125.199
0.039135	6.31819	0.00426652	0.610188	0.167214	29.0238	0.28263	45.1464	0.501786	86.472	0.560833	98.2797	0.144978	24.3919	0.334514	53.1672	0.421576	67.8028	0.668483	111.9
0.0431201	6.3166	0.00502831	0.659486	0.167163	26.1448	0.283283	41.0986	0.501648	77.9523	0.56125	88.5398	0.146113	22.2187	0.33443	48.2987	0.422064	61.6139	0.6682	101.144
0.0471018	6.31482	0.0058415	0.707456	0.167109	23.7837	0.283995	37.7392	0.5015	70.9557	0.561707	80.573	0.147349	20.4408	0.33434	44.2444	0.422596	56.4773	0.6679	92.266
0.0510795	6.31282	0.00670332	0.754072	0.167055	21.8126	0.284766	34.9077	0.501341	65.1072	0.562205	73.9367	0.148683	18.9621	0.334245	40.8158	0.423173	52.1467	0.667584	84.8123
0.0550525	6.31058	0.00761089	0.799299	0.167	20.1421	0.285593	32.4902	0.501173	60.1454	0.562741	68.3243	0.15011	17.7152	0.334145	37.8783	0.423793	48.4473	0.667255	78.4659
0.0590205	6.30811	0.00856135	0.843116	0.166948	18.7087	0.286477	30.4032	0.500997	55.8827	0.563316	63.5167	0.151627	16.6514	0.334043	35.3334	0.424455	45.2513	0.666916	72.9969
0.0629825	6.30535	0.00955208	0.885528	0.166898	17.4652	0.287416	28.5843	0.500813	52.181	0.563927	59.353	0.153231	15.7347	0.333937	33.1075	0.42516	42.4633	0.666567	68.2351
0.0669378	6.30228	0.0105803	0.926527	0.166852	16.3766	0.288409	26.9856	0.500623	48.9364	0.564574	55.7126	0.154918	14.9378	0.33383	31.144	0.425905	40.0104	0.66621	64.0517
0.0708855	6.29888	0.0116435	0.966123	0.166813	15.4157	0.289455	25.5703	0.500427	46.0692	0.565257	52.5032	0.156685	14.2397	0.333721	29.3992	0.426691	37.8362	0.665848	60.3474
0.0748245	6.29511	0.0127391	1.00433	0.16678	14.5617	0.290552	24.3091	0.500226	43.517	0.565974	49.6529	0.158527	13.6241	0.333612	27.8385	0.427517	35.8963	0.665482	57.0443
0.0787534	6.29093	0.0138649	1.04116	0.166757	13.7978	0.2917	23.1786	0.500022	41.2307	0.566724	47.1051	0.160441	13.0778	0.333504	26.4344	0.428381	34.155	0.665113	54.0808
0.0826709	6.28627	0.0150184	1.07665	0.166746	13.1107	0.292898	22.1601	0.499815	39.1708	0.567507	44.8143	0.162425	12.5904	0.333397	25.1644	0.429283	32.5839	0.664742	51.407
0.0865752	6.28108	0.0161977	1.11083	0.166748	12.4898	0.294143	21.2381	0.499606	37.3054	0.568321	42.7439	0.164474	12.1534	0.333291	24.0103	0.430222	31.1594	0.664371	48.9826
0.0904642	6.27529	0.0174006	1.14372	0.166767	11.9263	0.295436	20.3999	0.499396	35.6081	0.569165	40.8636	0.166585	11.7598	0.333189	22.9569	0.431197	29.8621	0.664001	46.7742
0.0943355	6.26881	0.0186253	1.17536	0.166805	11.4128	0.296774	19.6348	0.499186	34.0573	0.57004	39.1487	0.168756	11.4039	0.33309	21.9918	0.432208	28.6761	0.663632	44.7544
0.098186	6.26152	0.0198701	1.20578	0.166865	10.9433	0.298157	18.9341	0.498977	32.6348	0.570943	37.5785	0.170982	11.0808	0.332996	21.1043	0.433254	27.5879	0.663267	42.9
0.102012	6.25331	0.0211331	1.23503	0.166952	10.513	0.299584	18.29	0.498769	31.3255	0.571875	36.1356	0.173262	10.7864	0.332908	20.2856	0.434334	26.5859	0.662904	41.1915
0.10581	6.24401	0.022413	1.26314	0.16707	10.1174	0.301052	17.6964	0.498563	30.1163	0.572833	34.8053	0.175592	10.5173	0.332826	19.528	0.435446	25.6606	0.662547	39.6125
0.109573	6.23344	0.0237082	1.29015	0.167223	9.75321	0.302562	17.1477	0.498361	28.9963	0.573819	33.5749	0.177969	10.2707	0.332751	18.8251	0.436591	24.8037	0.662194	38.1489
0.113295	6.22136	0.0250174	1.31609	0.16742	9.41728	0.304111	16.6391	0.498162	27.9559	0.57483	32.4338	0.180391	10.0438	0.332684	18.1711	0.437768	24.0079	0.661847	36.7885
0.116968	6.20748	0.0263393	1.34102	0.167632	9.14567	0.3057	16.1665	0.497967	26.9872	0.575866	31.3728	0.182855	9.83471	0.332627	17.5614	0.438975	23.2671	0.661506	35.5208
0.120582	6.19145	0.0276728	1.36496	0.167847	8.92855	0.307325	15.7265	0.497778	26.0829	0.576927	30.3836	0.185358	9.64138	0.332579	16.9915	0.440213	22.5759	0.661172	34.3368
0.124124	6.17284	0.029017	1.38796	0.168052	8.75848	0.308987	15.3159	0.497595	25.237	0.578011	29.4595	0.187898	9.46224	0.332543	16.4578	0.441479	21.9296	0.660845	33.2284
0.127577	6.15111	0.0303706	1.41005	0.168235	8.62981	0.310685	14.9319	0.497419	24.444	0.579118	28.5942	0.190473	9.29583	0.332518	15.9571	0.442775	21.324	0.660527	32.1888
0.130923	6.12564	0.0317329	1.43128	0.168381	8.53837	0.312416	14.5722	0.497249	23.6991	0.580248	27.7824	0.19308	9.14091	0.332506	15.4865	0.444098	20.7555	0.660216	31.2117
0.134138	6.09569	0.0331031	1.45166	0.16848	8.48123	0.31418	14.2345	0.497088	22.9981	0.5814	27.0194	0.195717	8.99636	0.332509	15.0435	0.445448	20.2209	0.659915	30.2917
0.137196	6.06045	0.0344803	1.47125	0.168631	8.40095	0.315977	13.9171	0.496935	22.3375	0.582573	26.3009	0.198037	8.87809	0.332526	14.6258	0.446825	19.7173	0.659623	29.4241
0.140066	6.0191	0.0358639	1.49008	0.168807	8.31613	0.317804	13.6182	0.496791	21.7137	0.583767	25.6231	0.20003	8.78246	0.332559	14.2314	0.448227	19.2422	0.65934	28.6045
0.142721	5.97088	0.0372531	1.50817	0.169067	8.20478	0.31966	13.3364	0.496657	21.1239	0.584981	24.9829	0.201688	8.70674	0.33261	13.8584	0.449655	18.7932	0.659067	27.8291
0.145133	5.91529	0.038468	1.52336	0.169434	8.07045	0.321546	13.0702	0.496533	20.5654	0.586214	24.3771	0.203005	8.64889	0.332678	13.5054	0.451107	18.3684	0.658804	27.0944
0.147287	5.85224	0.0395064	1.53591	0.169943	7.91747	0.323459	12.8184	0.496421	20.0359	0.587467	23.8032	0.203976	8.60745	0.332767	13.1708	0.452583	17.9658	0.658553	26.3974
0.14918	5.78213	0.0403669	1.54601	0.170641	7.75098	0.325398	12.5799	0.496319	19.5332	0.588738	23.2587	0.204599	8.5814	0.332876	12.8534	0.454082	17.5838	0.658312	25.7353
0.15082	5.70582	0.0410484	1.55383	0.171601	7.57693	0.327363	12.3538	0.49623	19.0554	0.590028	22.7414	0.205497	8.54458	0.333008	12.552	0.455603	17.221	0.658082	25.1056
0.152229	5.62455	0.04155	1.55948	0.172759	7.42083	0.329352	12.1392	0.496153	18.6007	0.591335	22.2494	0.206475	8.50536	0.333163	12.2654	0.457146	16.8759	0.657864	24.506
0.153436	5.53969	0.0418713	1.56306	0.174145	7.28253	0.331364	11.9351	0.496089	18.1675	0.59266	21.781	0.207809	8.45334	0.333344	11.9929	0.45871	16.5473	0.657657	23.9345
0.154472	5.45259	0.0423335	1.56815	0.175785	7.16167	0.333398	11.7409	0.49604	17.7545	0.594001	21.3344	0.209502	8.38961	0.333552	11.7333	0.460295	16.2341	0.657463	23.389
0.155367	5.36444	0.0428363	1.57361	0.177694	7.05761	0.335454	11.5559	0.496004	17.3602	0.595359	20.9082	0.211557	8.31545	0.333788	11.4861	0.4619	15.9352	0.657281	22.868
0.156149	5.27622	0.0435207	1.58091	0.179877	6.96926	0.33753	11.3795	0.495983	16.9836	0.596733	20.5011	0.213977	8.23226	0.334055	11.2505	0.463524	15.6498	0.657112	22.3699
0.15684	5.1887	0.0443873	1.58995	0.182325	6.89513	0.339625	11.2111	0.495978	16.6234	0.598123	20.1119	0.216766	8.14145	0.334355	11.0257	0.465167	15.3769	0.656956	21.8932
0.15746	5.10244	0.0454368	1.60061	0.185015	6.83344	0.341737	11.0501	0.495989	16.2787	0.599527	19.7393	0.219565	8.05522	0.334689	10.8113	0.466828	15.1158	0.656813	21.4367
0.158024	5.01786	0.0466696	1.61273	0.18792	6.78229	0.343867	10.8962	0.496017	15.9485	0.600947	19.3824	0.222371	7.97316	0.335061	10.6066	0.468507	14.8657	0.656684	20.999
0.158543	4.93525	0.0480865	1.62615	0.191008	6.73988	0.346012	10.7487	0.496062	15.6321	0.602381	19.0403	0.225181	7.89491	0.335472	10.4111	0.470202	14.626	0.656568	20.5791
0.15903	4.8548	0.0495054	1.63907	0.194249	6.70461	0.348173	10.6074	0.496125	15.3286	0.603829	18.712	0.227994	7.82013	0.335926	10.2245	0.471914	14.3961	0.656467	20.176
0.15949	4.77663	0.050926	1.65153	0.197616	6.67511	0.350346	10.4719	0.496207	15.0373	0.60529	18.3967	0.230807	7.74851	0.336424	10.0463	0.473642	14.1753	0.65638	19.7886
0.159931	4.7008	0.0523481	1.66353	0.201086	6.65027	0.352532	10.3417	0.496308	14.7575	0.606765	18.0937	0.233616	7.67977	0.336971	9.87613	0.475385	13.9631	0.656308	19.4162
0.160358	4.62733	0.0537714	1.67509	0.204641	6.62918	0.35473	10.2166	0.496429	14.4886	0.608253	17.8024	0.23642	7.61363	0.33757	9.71361	0.477142	13.7591	0.65625	19.058
0.160775	4.55621	0.0551959	1.68624	0.208265	6.61114	0.356938	10.0963	0.496571	14.2301	0.609753	17.5219	0.239214	7.54985	0.338223	9.55845	0.478913	13.5629	0.656208	18.713
0.161185	4.48741	0.0566212	1.697	0.211947	6.59558	0.359154	9.98047	0.496734	13.9814	0.611266	17.2518	0.241996	7.48818	0.338935	9.41037	0.480698	13.3739	0.656182	18.3808
0.16154	4.42933	0.0580472	1.70737	0.215675	6.58205	0.361379	9.86883	0.496919	13.742	0.61279	16.9916	0.244763	7.42841	0.339606	9.28689	0.482495	13.1917	0.656171	18.0605
0.161842	4.38115	0.0594738	1.71739	0.219442	6.57021	0.36361	9.76117	0.497128	13.5114	0.614326	16.7406	0.24751	7.37032	0.340217	9.18559	0.484305	13.0161	0.656177	17.7517
0.162091	4.34223	0.0609009	1.72705	0.223242	6.55976	0.365846	9.65723	0.497361	13.2893	0.615873	16.4984	0.250235	7.31372	0.340751	9.1045	0.486125	12.8467	0.656199	17.4536
0.162288	4.31203	0.0623282	1.73639	0.227069	6.55049	0.368086	9.55682	0.497618	13.0752	0.61743	16.2645	0.252933	7.25841	0.341192	9.04208	0.487957	12.6831	0.656238	17.1659
0.162434	4.29015	0.0637558	1.7454	0.23092	6.54221	0.370329	9.45972	0.497902	12.8688	0.618998	16.0386	0.2556	7.2042	0.341527	8.99711	0.489799	12.5251	0.656295	16.888
0.162527	4.27629	0.0651835	1.75412	0.23479	6.53476	0.372573	9.36574	0.498212	12.6697	0.620576	15.8203	0.258233	7.15093	0.341747	8.96874	0.491651	12.3724	0.656369	16.6194
0.162661	4.25654	0.0666112	1.76254	0.238677	6.52803	0.374529	9.28625	0.498549	12.4776	0.622164	15.6091	0.260827	7.09844	0.34207	8.92851	0.493512	12.2246	0.656461	16.3598
0.162807	4.23534	0.0680388	1.77068	0.242578	6.52192	0.376196	9.22017	0.498916	12.2922	0.623761	15.4047	0.263377	7.04655	0.34243	8.88552	0.49538	12.0816	0.656571	16.1086
0.163007	4.20691	0.0694664	1.77856	0.246492	6.51634	0.377573	9.16664	0.499312	12.1132	0.625367	15.2068	0.265879	6.99513	0.342935	8.82827	0.497257	11.9432	0.6567	15.8656
0.163261	4.17164	0.0708937	1.78618	0.250416	6.51122	0.378661	9.12501	0.499739	11.9404	0.626981	15.0152	0.268329	6.94404	0.343602	8.75785	0.49914	11.809	0.656848	15.6304
0.163571	4.12997	0.0723208	1.79356	0.25435	6.5065	0.379461	9.09477	0.500198	11.7734	0.628603	14.8294	0.270722	6.89314	0.34445	8.67558	0.50103	11.679	0.657016	15.4025
0.163938	4.08244	0.0737476	1.8007	0.258291	6.50213	0.379973	9.07559	0.50069	11.6122	0.630233	14.6493	0.273053	6.84231	0.345505	8.583	0.502925	11.5529	0.657204	15.1819
0.164365	4.02961	0.0751742	1.80762	0.26224	6.49807	0.380707	9.04823	0.501217	11.4563	0.631871	14.4746	0.275319	6.79146	0.346799	8.48188	0.504826	11.4304	0.657413	14.968
0.164799	3.97857	0.0766003	1.81432	0.266194	6.49428	0.381505	9.01878	0.50178	11.3058	0.633516	14.305	0.277516	6.74048	0.348184	8.38604	0.50673	11.3116	0.657642	14.7607
0.165241	3.92924	0.078026	1.82081	0.270154	6.49072	0.38259	8.9792	0.50238	11.1603	0.635167	14.1404	0.279639	6.68931	0.349664	8.29532	0.508638	11.1961	0.657893	14.5596
0.165691	3.88156	0.0794513	1.8271	0.274117	6.48737	0.383958	8.9299	0.503018	11.0196	0.636824	13.9804	0.281687	6.63788	0.35124	8.20954	0.510549	11.0839	0.658166	14.3646
0.166149	3.83547	0.0808761	1.83321	0.278085	6.48421	0.38561	8.87138	0.503697	10.8837	0.638487	13.825	0.283658	6.58615	0.352915	8.12852	0.512461	10.9747	0.658462	14.1754
0.166616	3.7909	0.0823005	1.83913	0.282055	6.48122	0.387542	8.80418	0.504416	10.7523	0.640156	13.6738	0.285548	6.53409	0.354688	8.05207	0.514375	10.8685	0.65878	13.9917
0.167093	3.74781	0.0837243	1.84487	0.286028	6.47836	0.389749	8.72891	0.505178	10.6253	0.64183	13.5268	0.287358	6.4817	0.356561	7.98001	0.516289	10.7651	0.659122	13.8134
0.167578	3.70612	0.0851476	1.85045	0.290003	6.47563	0.391945	8.65549	0.505984	10.5025	0.643508	13.3838	0.289087	6.42899	0.358533	7.91214	0.518203	10.6643	0.659488	13.6403
0.168073	3.66579	0.0865704	1.85586	0.29398	6.47302	0.394128	8.5838	0.506836	10.3839	0.64519	13.2446	0.290736	6.37598	0.360602	7.84826	0.520116	10.5662	0.659879	13.4722
0.168578	3.62677	0.0879927	1.86112	0.297958	6.4705	0.396296	8.51376	0.507735	10.2692	0.646876	13.109	0.292306	6.32272	0.362766	7.78815	0.522027	10.4705	0.660295	13.3088
0.169092	3.589	0.0894144	1.86622	0.301936	6.46806	0.398448	8.44524	0.508682	10.1584	0.648565	12.9769	0.293799	6.26925	0.365022	7.73162	0.523935	10.3771	0.660738	13.1501
0.169616	3.55244	0.0908356	1.87118	0.305915	6.46569	0.400582	8.37817	0.509678	10.0514	0.650258	12.8482	0.295218	6.21564	0.367369	7.67846	0.525839	10.286	0.661206	12.9958
0.17015	3.51704	0.0922562	1.87601	0.309894	6.46338	0.402697	8.31245	0.510726	9.94798	0.651952	12.7227	0.296565	6.16195	0.369801	7.62846	0.52774	10.197	0.661702	12.8459
0.170695	3.48276	0.0936763	1.8807	0.313871	6.46112	0.404792	8.248	0.511826	9.84808	0.653649	12.6003	0.297845	6.10826	0.372316	7.58142	0.529634	10.11	0.662226	12.7001
0.171249	3.44955	0.0950958	1.88526	0.317848	6.45889	0.406864	8.18474	0.512979	9.75161	0.655347	12.4808	0.299059	6.05464	0.374908	7.53714	0.531523	10.0251	0.662778	12.5584
0.171813	3.41738	0.0965146	1.88969	0.321824	6.45669	0.408912	8.1226	0.514029	9.67024	0.657046	12.3643	0.300214	6.00117	0.377574	7.49543	0.533405	9.94197	0.66336	12.4206
0.172387	3.3862	0.097933	1.89401	0.325797	6.45452	0.410935	8.06151	0.514957	9.60282	0.658745	12.2505	0.301311	5.94792	0.38031	7.45613	0.535279	9.86067	0.663971	12.2865
0.172971	3.35598	0.0993508	1.89821	0.329769	6.45234	0.412932	8.00141	0.515747	9.54839	0.660445	12.1393	0.302357	5.89495	0.383111	7.41904	0.537145	9.78107	0.664613	12.1561
0.173565	3.32669	0.100768	1.9023	0.333737	6.45017	0.414901	7.94223	0.516388	9.50618	0.662144	12.0307	0.303353	5.84234	0.385972	7.38403	0.538763	9.71306	0.665286	12.0293
0.174169	3.29828	0.102185	1.90629	0.337702	6.44798	0.416842	7.88394	0.516867	9.4756	0.663842	11.9245	0.304305	5.79014	0.388891	7.35092	0.540136	9.65603	0.665991	11.9059
0.174783	3.27073	0.103601	1.91017	0.341663	6.44577	0.418753	7.82647	0.517178	9.45624	0.665539	11.8207	0.305215	5.73841	0.391863	7.31959	0.541267	9.6095	0.666729	11.7858
0.175406	3.244	0.105016	1.91395	0.345619	6.44352	0.420635	7.7698	0.517629	9.42867	0.667235	11.7192	0.306088	5.68719	0.394884	7.2899	0.542158	9.57312	0.6675	11.669
0.176039	3.21807	0.106432	1.91763	0.34957	6.44123	0.422486	7.71388	0.518128	9.39908	0.668927	11.6198	0.306927	5.63654	0.397951	7.26173	0.542812	9.54658	0.668306	11.5553
0.176682	3.19291	0.107846	1.92123	0.353514	6.43887	0.424307	7.65868	0.518817	9.35943	0.670617	11.5226	0.307734	5.58648	0.40106	7.23498	0.54323	9.5297	0.669146	11.4447
0.177334	3.16848	0.10926	1.92473	0.357451	6.43644	0.426097	7.60419	0.519708	9.31025	0.672304	11.4274	0.308513	5.53705	0.404209	7.20952	0.543829	9.50556	0.670021	11.337
0.177996	3.14477	0.110673	1.92815	0.36138	6.43392	0.427858	7.55039	0.520816	9.25222	0.673986	11.3341	0.309266	5.48827	0.407394	7.18528	0.544478	9.47948	0.670932	11.2322
0.178667	3.12174	0.112086	1.93148	0.3653	6.43128	0.429589	7.49726	0.522156	9.18609	0.675664	11.2428	0.309996	5.44017	0.410613	7.16216	0.545359	9.44431	0.67188	11.1303
0.179348	3.09938	0.113499	1.93473	0.369208	6.42852	0.431292	7.44481	0.523749	9.11272	0.677338	11.1532	0.310706	5.39277	0.413863	7.14008	0.546469	9.40028	0.672865	11.031
0.180037	3.07766	0.114911	1.93791	0.373105	6.4256	0.432969	7.39304	0.525401	9.04196	0.679006	11.0655	0.311397	5.34607	0.417142	7.11897	0.547804	9.3477	0.673888	10.9344
0.180736	3.05656	0.116322	1.94101	0.376986	6.4225	0.434621	7.34197	0.527111	8.97372	0.680668	10.9794	0.312071	5.3001	0.420447	7.09876	0.54936	9.28692	0.67495	10.8404
0.181444	3.03605	0.117733	1.94404	0.380851	6.41918	0.436252	7.2916	0.528879	8.90791	0.682324	10.895	0.31273	5.25485	0.423777	7.07938	0.551132	9.21831	0.67605	10.7489
0.18216	3.01612	0.119144	1.94699	0.384697	6.41561	0.437864	7.24199	0.530706	8.84446	0.683972	10.8121	0.313376	5.21033	0.427129	7.06079	0.552889	9.15089	0.67719	10.6598
0.182885	2.99675	0.120554	1.94988	0.388521	6.41174	0.439461	7.19317	0.532589	8.78327	0.685614	10.7308	0.31401	5.16655	0.430503	7.04292	0.554629	9.0846	0.678369	10.5731
0.183619	2.97791	0.121963	1.95271	0.392318	6.40753	0.441049	7.1452	0.534529	8.72426	0.687247	10.6509	0.314634	5.1235	0.433895	7.02572	0.556353	9.0194	0.679588	10.4887
0.184362	2.9596	0.123372	1.95546	0.396084	6.40291	0.442634	7.09814	0.536524	8.66736	0.688873	10.5725	0.315249	5.08118	0.437305	7.00916	0.55806	8.95525	0.680848	10.4066
0.185112	2.94178	0.124781	1.95816	0.399815	6.3978	0.444222	7.05208	0.538573	8.61247	0.690489	10.4954	0.315856	5.03959	0.440731	6.99318	0.559749	8.89211	0.682148	10.3266
0.185872	2.92445	0.126189	1.9608	0.403502	6.39212	0.445822	7.00713	0.540676	8.55953	0.692097	10.4197	0.316456	4.99872	0.444172	6.97775	0.56142	8.82994	0.68349	10.2488
0.186639	2.90759	0.127597	1.96338	0.407139	6.38575	0.447444	6.9634	0.542831	8.50844	0.693695	10.3452	0.31705	4.95857	0.447625	6.96282	0.563072	8.7687	0.684872	10.1731
0.187415	2.89119	0.129004	1.9659	0.410716	6.37858	0.4491	6.92106	0.545036	8.45915	0.695282	10.272	0.31764	4.91913	0.451091	6.94838	0.564705	8.70836	0.68611	10.1087
0.188198	2.87522	0.130411	1.96837	0.414222	6.37046	0.450804	6.88026	0.54729	8.41156	0.69686	10.2	0.318225	4.88039	0.454567	6.93437	0.56632	8.64891	0.68719	10.055
0.188989	2.85968	0.131817	1.97078	0.417643	6.3612	0.452573	6.84121	0.549591	8.36562	0.698226	10.1382	0.318806	4.84234	0.458053	6.92077	0.567915	8.59029	0.6881	10.0114
0.189789	2.84455	0.133223	1.97315	0.420965	6.35062	0.454423	6.80414	0.551939	8.32125	0.699383	10.0862	0.319385	4.80497	0.461547	6.90756	0.569491	8.5325	0.68883	9.97744
0.190595	2.82982	0.134629	1.97546	0.42417	6.33849	0.456375	6.76926	0.554331	8.27837	0.700336	10.0437	0.319962	4.76828	0.465049	6.8947	0.571047	8.47551	0.689374	9.95274
0.19141	2.81547	0.136034	1.97773	0.42724	6.32459	0.458447	6.7368	0.556765	8.23693	0.701086	10.0103	0.320537	4.73224	0.468556	6.88217	0.572585	8.4193	0.689724	9.93706
0.192231	2.8015	0.137439	1.97994	0.430157	6.3087	0.460658	6.70696	0.559241	8.19686	0.701636	9.98597	0.321111	4.69686	0.472068	6.86994	0.574104	8.36385	0.690232	9.91469
0.193061	2.78789	0.138843	1.98212	0.432905	6.29066	0.463023	6.67987	0.561756	8.15811	0.701987	9.97046	0.321684	4.66212	0.475584	6.85798	0.575604	8.30915	0.690788	9.8906
