Sym0		Asym0		Sym1		Sym2		Sym3		Sym4		Asym1		Asym2		Asym3		Asym4	
531  Points		532  Points		421  Points		159  Points		146  Points		110  Points		487  Points		304  Points		153  Points		117  Points	
Freq (MHz)	Vph (m/ms)	Freq (MHz)	Vph (m/ms)	Freq (MHz)	Vph (m/ms)	Freq (MHz)	Vph (m/ms)	Freq (MHz)	Vph (m/ms)	Freq (MHz)	Vph (m/ms)	Freq (MHz)	Vph (m/ms)	Freq (MHz)	Vph (m/ms)	Freq (MHz)	Vph (m/ms)	Freq (MHz)	Vph (m/ms)
0.00293923	7.39418	0.000315956	0.183716	0.16645	309.831	0.279509	8644.93	0.499355	1929.79	0.559018	5759.52	0.139754	8798.43	0.332902	714.587	0.419284	798.343	0.665803	1771.57
0.00761544	7.39392	0.000588905	0.250357	0.166441	142.296	0.279556	420.519	0.499342	560.292	0.559053	766.335	0.13984	215.69	0.332891	303.091	0.419367	362.257	0.665771	660.302
0.0122912	7.39358	0.000943593	0.316142	0.166425	92.3486	0.279688	215.602	0.499314	327.704	0.559144	410.54	0.140089	109.376	0.332871	192.325	0.419511	234.35	0.66571	405.738
0.0169662	7.39308	0.00137769	0.380874	0.166403	68.3494	0.279905	145.051	0.499272	231.56	0.559288	280.426	0.140499	73.4348	0.332843	140.842	0.419717	173.253	0.66562	292.813
0.02164	7.39241	0.00188849	0.444389	0.166375	54.246	0.280207	109.364	0.499216	179.021	0.559487	212.985	0.14107	55.4148	0.332806	111.095	0.419984	137.474	0.665503	229.038
0.0263124	7.39157	0.00247278	0.506501	0.166342	44.9634	0.280593	87.8333	0.499147	145.905	0.559739	171.734	0.141798	44.6162	0.332762	91.7169	0.420312	113.984	0.66536	188.055
0.0309829	7.39053	0.00312719	0.567081	0.166305	38.3902	0.281063	73.4407	0.499064	123.119	0.560045	143.904	0.14268	37.4427	0.33271	78.09	0.420701	97.3861	0.665192	159.497
0.0356511	7.3893	0.00384813	0.626019	0.166264	33.4911	0.281615	63.1491	0.498969	106.482	0.560403	123.866	0.143712	32.3453	0.332651	67.9843	0.421149	85.0397	0.665002	138.455
0.0403166	7.38785	0.00463172	0.683201	0.16622	29.6987	0.282249	55.4301	0.498863	93.7994	0.560812	108.754	0.144892	28.5471	0.332586	60.1909	0.421657	75.5003	0.664792	122.306
0.044979	7.3862	0.00547423	0.738573	0.166174	26.6761	0.282963	49.4308	0.498746	83.8107	0.561273	96.9524	0.146213	25.6155	0.332514	53.9974	0.422223	67.9111	0.664563	109.521
0.0496377	7.3843	0.00637167	0.792067	0.166129	24.2107	0.283758	44.6378	0.498619	75.7397	0.561784	87.4832	0.147671	23.2903	0.332438	48.9569	0.422847	61.7318	0.664317	99.1461
0.0542919	7.38212	0.00732024	0.843656	0.166084	22.1616	0.28463	40.7235	0.498482	69.0823	0.562343	79.719	0.149261	21.4059	0.332357	44.7747	0.423528	56.6048	0.664057	90.5593
0.0589412	7.37966	0.00831616	0.89332	0.166042	20.4316	0.28558	37.4689	0.498338	63.4968	0.562952	73.2388	0.150978	19.8515	0.332273	41.2488	0.424266	52.2839	0.663784	83.3345
0.0635844	7.37687	0.00935578	0.941062	0.166004	18.952	0.286606	34.7222	0.498186	58.7436	0.563607	67.7495	0.152816	18.5505	0.332186	38.236	0.425058	48.5941	0.6635	77.1714
0.0682208	7.37372	0.0104355	0.986888	0.165972	17.6723	0.287705	32.3748	0.498028	54.6495	0.564309	63.0411	0.154769	17.4481	0.332097	35.6318	0.425905	45.4078	0.663208	71.852
0.0728492	7.37016	0.0115521	1.03082	0.165948	16.5549	0.288878	30.347	0.497865	51.0862	0.565055	58.9589	0.156834	16.5041	0.332007	33.3585	0.426806	42.6293	0.662909	67.214
0.0774681	7.36613	0.0127023	1.07291	0.165934	15.5711	0.290122	28.5789	0.497698	47.9568	0.565846	55.3863	0.159003	15.6883	0.331917	31.3569	0.427758	40.1859	0.662605	63.1346
0.0820759	7.36157	0.013883	1.11318	0.165933	14.6987	0.291435	27.0246	0.497528	45.1866	0.56668	52.2344	0.161273	14.9776	0.331828	29.581	0.428763	38.0212	0.662297	59.5185
0.0866706	7.35637	0.0150916	1.15168	0.165948	13.9202	0.292817	25.6485	0.497355	42.7172	0.567556	49.4333	0.163637	14.354	0.331741	27.9948	0.429817	36.0906	0.661987	56.2913
0.0912498	7.35046	0.0163253	1.18847	0.165983	13.2216	0.294264	24.4223	0.497181	40.5022	0.568473	46.9281	0.166091	13.8035	0.331656	26.5696	0.430921	34.3587	0.661675	53.3933
0.0958102	7.34368	0.0175819	1.2236	0.166041	12.5919	0.295777	23.3236	0.497007	38.5042	0.569431	44.6746	0.168629	13.3146	0.331575	25.2822	0.432073	32.7967	0.661365	50.7768
0.100348	7.33588	0.0188589	1.25715	0.166127	12.0218	0.297352	22.334	0.496834	36.6929	0.570427	42.6372	0.171248	12.8782	0.331499	24.1135	0.433273	31.3812	0.661056	48.4028
0.104858	7.32685	0.0201545	1.28916	0.166247	11.504	0.298989	21.4385	0.496663	35.0434	0.571461	40.7863	0.173942	12.4869	0.331429	23.0481	0.434519	30.093	0.660749	46.239
0.109335	7.31631	0.0214665	1.31969	0.16641	11.0324	0.300686	20.6249	0.496494	33.535	0.572532	39.0979	0.176707	12.1345	0.331366	22.0729	0.43581	28.9158	0.660446	44.259
0.113769	7.30392	0.0227934	1.34882	0.166592	10.6552	0.30244	19.8827	0.496328	32.1504	0.573639	37.5517	0.179539	11.8158	0.33131	21.177	0.437146	27.8363	0.660148	42.4402
0.11815	7.28922	0.0241336	1.37661	0.166785	10.3563	0.304251	19.2033	0.496167	30.8751	0.574782	36.1306	0.182433	11.5265	0.331264	20.3513	0.438524	26.8431	0.659855	40.764
0.122464	7.27161	0.0254856	1.40311	0.166974	10.1238	0.306117	18.5794	0.496012	29.6967	0.575959	34.8203	0.185386	11.263	0.331228	19.588	0.439945	25.9264	0.659568	39.2141
0.12669	7.25029	0.0268481	1.42839	0.167146	9.94892	0.308035	18.0047	0.495862	28.6046	0.57717	33.6084	0.188394	11.0222	0.331203	18.8804	0.441408	25.0779	0.659289	37.777
0.130803	7.2242	0.02822	1.4525	0.167286	9.82517	0.310005	17.4738	0.495719	27.5897	0.578413	32.4845	0.191453	10.8015	0.331191	18.2227	0.44291	24.2904	0.659017	36.4408
0.134768	7.19197	0.0296001	1.4755	0.167382	9.74807	0.312025	16.9823	0.495584	26.6443	0.579688	31.4394	0.194559	10.5986	0.331192	17.61	0.444452	23.5579	0.658753	35.1954
0.138539	7.15182	0.0309875	1.49745	0.167531	9.64007	0.314092	16.526	0.495457	25.7615	0.580995	30.4653	0.197709	10.4115	0.331208	17.0379	0.446033	22.8748	0.658498	34.0318
0.14206	7.10171	0.0322018	1.51577	0.167707	9.52638	0.316206	16.1014	0.495339	24.9354	0.582331	29.5552	0.200487	10.26	0.331241	16.5027	0.447651	22.2365	0.658253	32.9424
0.145267	7.03948	0.0332404	1.5308	0.167973	9.37786	0.318365	15.7055	0.495231	24.1608	0.583698	28.7032	0.202878	10.1385	0.331291	16.001	0.449305	21.6389	0.658017	31.9203
0.148102	6.96344	0.0341014	1.54285	0.168359	9.19987	0.320568	15.3357	0.495134	23.433	0.585093	27.904	0.204869	10.0431	0.331361	15.53	0.450995	21.0782	0.657792	30.9595
0.150527	6.87306	0.0347835	1.55213	0.168913	8.9991	0.322812	14.9895	0.495048	22.748	0.586517	27.1529	0.206452	9.97054	0.331452	15.087	0.45272	20.5514	0.657578	30.0548
0.152539	6.76945	0.0352857	1.55883	0.16971	8.78362	0.325096	14.6649	0.494975	22.1023	0.587968	26.4458	0.207621	9.91879	0.331565	14.6698	0.454478	20.0554	0.657375	29.2014
0.154174	6.65523	0.0356074	1.56306	0.170866	8.56315	0.327419	14.36	0.494914	21.4926	0.589447	25.7789	0.208371	9.88635	0.331702	14.2764	0.45627	19.5878	0.657184	28.3951
0.155492	6.53371	0.0360703	1.56907	0.172341	8.37175	0.329779	14.0732	0.494866	20.9161	0.590952	25.1491	0.209452	9.84061	0.331866	13.905	0.458093	19.1462	0.657005	27.6323
0.156557	6.40816	0.0365738	1.57549	0.174197	8.20965	0.332174	13.8028	0.494833	20.3702	0.592483	24.5534	0.21063	9.79205	0.332059	13.5539	0.459948	18.7287	0.656838	26.9095
0.157429	6.28125	0.0372594	1.58406	0.176472	8.07618	0.334603	13.5477	0.494815	19.8525	0.594039	23.9891	0.212238	9.72788	0.332283	13.2217	0.461833	18.3333	0.656685	26.2238
0.158157	6.15497	0.0381276	1.59463	0.179174	7.96915	0.337065	13.3067	0.494813	19.3612	0.595619	23.4539	0.21428	9.64963	0.332541	12.9071	0.463747	17.9584	0.656545	25.5723
0.158778	6.03072	0.0391792	1.60704	0.182269	7.885	0.339557	13.0785	0.494827	18.8941	0.597224	22.9457	0.216761	9.5591	0.332835	12.609	0.46569	17.6025	0.656418	24.9527
0.159321	5.90938	0.0404147	1.62107	0.1857	7.81947	0.342079	12.8623	0.494858	18.4498	0.598852	22.4624	0.219685	9.45818	0.333169	12.3264	0.467661	17.2643	0.656306	24.3627
0.159806	5.79151	0.0418348	1.63651	0.189401	7.76843	0.344628	12.6572	0.494908	18.0266	0.600503	22.0024	0.223057	9.34879	0.333547	12.0582	0.469659	16.9425	0.656208	23.8003
0.160249	5.67744	0.043257	1.65129	0.193312	7.72838	0.347203	12.4623	0.494977	17.6231	0.602177	21.564	0.226442	9.24559	0.333973	11.8037	0.471682	16.6359	0.656125	23.2636
0.160662	5.56732	0.044681	1.66544	0.197384	7.69657	0.349803	12.2769	0.495065	17.2381	0.603873	21.1458	0.229837	9.14798	0.33445	11.5621	0.473731	16.3436	0.656057	22.7511
0.161053	5.46119	0.0461064	1.67899	0.201579	7.67096	0.352425	12.1003	0.495174	16.8704	0.60559	20.7465	0.233238	9.05539	0.334985	11.3328	0.475804	16.0646	0.656004	22.261
0.161429	5.35902	0.047533	1.69198	0.205867	7.65005	0.355069	11.932	0.495305	16.5189	0.607328	20.3648	0.236641	8.9673	0.335582	11.1152	0.477901	15.7981	0.655968	21.7921
0.161796	5.26074	0.0489607	1.70442	0.210229	7.63273	0.357731	11.7713	0.495459	16.1827	0.609086	19.9996	0.24004	8.88322	0.336248	10.9087	0.48002	15.5432	0.655948	21.343
0.162157	5.16625	0.050389	1.71636	0.214647	7.6182	0.360411	11.6177	0.495636	15.8608	0.610864	19.6499	0.243432	8.80271	0.336889	10.7375	0.482161	15.2992	0.655945	20.9125
0.162516	5.07541	0.0518179	1.72781	0.21911	7.60587	0.363107	11.4707	0.495839	15.5525	0.612661	19.3148	0.246811	8.72535	0.337485	10.5978	0.484323	15.0654	0.655959	20.4996
0.162829	4.99913	0.0532473	1.7388	0.223608	7.59528	0.365817	11.33	0.496068	15.257	0.614478	18.9933	0.250172	8.65075	0.338013	10.4865	0.486504	14.8413	0.65599	20.1032
0.163096	4.93615	0.0546768	1.74935	0.228136	7.5861	0.368539	11.195	0.496324	14.9737	0.616312	18.6848	0.253509	8.57852	0.338456	10.4011	0.488705	14.6262	0.65604	19.7225
0.163319	4.88544	0.0561066	1.75949	0.232687	7.57807	0.371271	11.0654	0.496609	14.7017	0.618164	18.3883	0.256815	8.5083	0.338796	10.3398	0.490923	14.4197	0.656108	19.3565
0.163496	4.84621	0.0575364	1.76924	0.237258	7.57099	0.37401	10.9408	0.496924	14.4407	0.620034	18.1034	0.260083	8.43974	0.33902	10.3012	0.493159	14.2212	0.656195	19.0045
0.163627	4.81784	0.058966	1.77861	0.241845	7.56469	0.376756	10.8209	0.497271	14.19	0.62192	17.8292	0.263306	8.3725	0.339351	10.2465	0.495411	14.0302	0.656302	18.6657
0.163712	4.79988	0.0603956	1.78763	0.246446	7.55905	0.379151	10.72	0.497652	13.9491	0.623823	17.5653	0.266476	8.30626	0.339724	10.1883	0.497678	13.8464	0.656429	18.3394
0.163833	4.77436	0.0618249	1.79631	0.251057	7.55396	0.381194	10.6365	0.498067	13.7176	0.625741	17.311	0.269584	8.24068	0.340253	10.111	0.499959	13.6694	0.656576	18.025
0.163966	4.74698	0.063254	1.80467	0.255678	7.54934	0.382884	10.5691	0.49852	13.495	0.627674	17.0659	0.272622	8.17547	0.340961	10.0164	0.502254	13.4987	0.656745	17.722
0.164148	4.71036	0.0646827	1.81272	0.260308	7.54513	0.384219	10.5167	0.499012	13.2809	0.629622	16.8294	0.275579	8.11032	0.341875	9.90653	0.50456	13.334	0.656936	17.4296
0.16438	4.66502	0.066111	1.82048	0.264944	7.54126	0.385201	10.4788	0.499545	13.075	0.631584	16.6012	0.278446	8.04496	0.343034	9.78388	0.506878	13.1751	0.657149	17.1476
0.164665	4.61161	0.0675388	1.82796	0.269586	7.53769	0.385829	10.4548	0.500122	12.8769	0.63356	16.3809	0.281214	7.97913	0.344488	9.65123	0.509205	13.0215	0.657385	16.8752
0.165004	4.55087	0.0689662	1.83518	0.274232	7.53438	0.386731	10.4206	0.500744	12.6864	0.635548	16.1679	0.283874	7.91261	0.346079	9.52701	0.511542	12.873	0.657646	16.6122
0.165401	4.48361	0.0703932	1.84215	0.278883	7.53128	0.387711	10.3838	0.501415	12.503	0.637549	15.962	0.286417	7.84521	0.347816	9.41097	0.513886	12.7294	0.657931	16.3581
0.165807	4.41886	0.0718196	1.84888	0.283537	7.52839	0.389043	10.3344	0.502137	12.3266	0.639561	15.7627	0.288838	7.77679	0.349702	9.30282	0.516236	12.5904	0.658241	16.1124
0.166222	4.35649	0.0732456	1.85538	0.288194	7.52565	0.390724	10.2731	0.502912	12.1569	0.641584	15.5699	0.29113	7.70726	0.351743	9.20227	0.518592	12.4557	0.658578	15.8749
0.166647	4.2964	0.0746709	1.86166	0.292852	7.52307	0.392753	10.2004	0.503744	11.9937	0.643618	15.3832	0.293291	7.63659	0.353938	9.10898	0.520952	12.3252	0.658942	15.6452
0.167081	4.23849	0.0760957	1.86773	0.297513	7.5206	0.395125	10.1172	0.504635	11.8366	0.645662	15.2022	0.295318	7.56481	0.356287	9.02258	0.523314	12.1986	0.659335	15.4229
0.167526	4.18266	0.07752	1.87361	0.302175	7.51825	0.397834	10.0242	0.505589	11.6857	0.647715	15.0268	0.297213	7.49199	0.358787	8.94266	0.525678	12.0756	0.659756	15.2078
0.167981	4.12882	0.0789437	1.87929	0.306837	7.51598	0.400526	9.93375	0.506608	11.5405	0.649777	14.8566	0.29898	7.41824	0.361433	8.86881	0.528042	11.9562	0.660207	14.9995
0.168446	4.07687	0.0803668	1.88479	0.3115	7.51379	0.403199	9.84559	0.507696	11.4011	0.651846	14.6915	0.300622	7.34375	0.364219	8.8006	0.530404	11.8401	0.66069	14.7979
0.168921	4.02674	0.0817894	1.89012	0.316162	7.51166	0.405848	9.75956	0.508856	11.2671	0.653922	14.5312	0.302146	7.26868	0.367138	8.73759	0.532763	11.7272	0.661205	14.6025
0.169407	3.97834	0.0832114	1.89528	0.320824	7.50958	0.408472	9.6755	0.509927	11.1547	0.656005	14.3754	0.303559	7.19324	0.37018	8.67934	0.535118	11.6173	0.661754	14.4133
0.169903	3.9316	0.0846329	1.90028	0.325485	7.50753	0.411065	9.59322	0.510887	11.062	0.658094	14.224	0.304871	7.11764	0.373336	8.62545	0.537467	11.5103	0.662337	14.23
0.17041	3.88645	0.0860537	1.90513	0.330144	7.50551	0.413627	9.51259	0.511713	10.9874	0.660188	14.0769	0.306088	7.04207	0.376599	8.57552	0.539809	11.406	0.662957	14.0524
0.170928	3.84283	0.0874741	1.90983	0.334801	7.5035	0.416152	9.43345	0.512388	10.9298	0.662285	13.9337	0.30722	6.96674	0.379959	8.52919	0.542141	11.3042	0.663613	13.8802
0.171456	3.80065	0.0888939	1.9144	0.339456	7.50149	0.418638	9.35567	0.512897	10.8882	0.664387	13.7943	0.308274	6.89182	0.383407	8.48612	0.544165	11.2175	0.664308	13.7134
0.171994	3.75988	0.0903131	1.91883	0.344108	7.49947	0.421081	9.27913	0.513228	10.8619	0.66649	13.6587	0.30926	6.81745	0.386935	8.44599	0.545882	11.1449	0.665044	13.5516
0.172543	3.72044	0.0917319	1.92313	0.348755	7.49742	0.423479	9.2037	0.513712	10.8246	0.668596	13.5265	0.310183	6.74379	0.390537	8.40853	0.547297	11.0859	0.66582	13.3948
0.173102	3.68228	0.0931501	1.92731	0.353399	7.49533	0.425829	9.12929	0.514248	10.7845	0.670702	13.3977	0.311052	6.67094	0.394205	8.37348	0.548412	11.0398	0.66664	13.2428
0.173672	3.64535	0.0945678	1.93136	0.358036	7.49318	0.428129	9.0558	0.514994	10.731	0.672809	13.2721	0.311872	6.59902	0.397933	8.34062	0.54923	11.0062	0.667503	13.0954
0.174251	3.6096	0.0959849	1.93531	0.362668	7.49096	0.430375	8.98314	0.515967	10.665	0.674915	13.1496	0.312648	6.52809	0.401716	8.30974	0.549752	10.9848	0.668413	12.9526
0.174841	3.57499	0.0974016	1.93915	0.367292	7.48864	0.432567	8.91126	0.517188	10.5874	0.677019	13.03	0.313387	6.45824	0.405548	8.28067	0.550501	10.9543	0.66937	12.8141
0.175441	3.54146	0.0988178	1.94288	0.371908	7.48621	0.434704	8.84009	0.518681	10.4995	0.67912	12.9133	0.314093	6.3895	0.409424	8.25323	0.551313	10.9214	0.670376	12.6798
0.176051	3.50897	0.100234	1.94651	0.376513	7.48364	0.436784	8.76961	0.520479	10.4027	0.681218	12.7992	0.314769	6.32191	0.41334	8.22729	0.552414	10.877	0.671432	12.5496
0.176671	3.47749	0.101649	1.95004	0.381106	7.4809	0.438809	8.69978	0.522367	10.3101	0.683311	12.6878	0.315419	6.25552	0.417293	8.20272	0.5538	10.8215	0.67254	12.4235
0.177301	3.44697	0.103064	1.95348	0.385685	7.47794	0.440778	8.63061	0.524345	10.2216	0.685398	12.5788	0.316047	6.19033	0.42128	8.17939	0.555467	10.7553	0.673701	12.3012
0.17794	3.41738	0.104478	1.95683	0.390247	7.47474	0.442694	8.56209	0.526412	10.1369	0.68748	12.4723	0.316656	6.12635	0.425296	8.15721	0.557407	10.6789	0.674916	12.1827
0.178589	3.38869	0.105892	1.96009	0.394789	7.47122	0.444559	8.49427	0.52857	10.056	0.689553	12.368	0.317247	6.0636	0.42934	8.13607	0.559613	10.5929	0.676187	12.0679
0.179248	3.36085	0.107305	1.96327	0.399306	7.46733	0.446378	8.42718	0.530816	9.97862	0.691618	12.2659	0.317824	6.00207	0.433409	8.11591	0.561795	10.5084	0.677516	11.9566
0.179915	3.33384	0.108718	1.96637	0.403793	7.46298	0.448156	8.36091	0.533148	9.90471	0.693674	12.1659	0.318388	5.94175	0.4375	8.09663	0.563951	10.4254	0.678902	11.8489
0.180592	3.30762	0.110131	1.96939	0.408244	7.45806	0.449899	8.29556	0.535566	9.83408	0.695719	12.0679	0.318941	5.88264	0.441612	8.07817	0.566081	10.3438	0.680348	11.7445
0.181279	3.28217	0.111543	1.97234	0.41265	7.45244	0.451617	8.23124	0.538066	9.76657	0.697753	11.9718	0.319485	5.82473	0.445742	8.06047	0.568182	10.2636	0.681657	11.6562
0.181974	3.25745	0.112955	1.97522	0.416999	7.44594	0.45332	8.16812	0.540647	9.70203	0.699774	11.8776	0.320021	5.76799	0.449889	8.04346	0.570253	10.1846	0.682809	11.5828
0.182678	3.23345	0.114367	1.97802	0.421278	7.43834	0.455022	8.10641	0.543304	9.64031	0.701781	11.7852	0.32055	5.71241	0.454051	8.02711	0.572294	10.1069	0.683787	11.5234
0.183391	3.21013	0.115778	1.98076	0.425467	7.42934	0.456741	8.04638	0.546037	9.58127	0.703519	11.706	0.321074	5.65798	0.458226	8.01134	0.574302	10.0303	0.684577	11.4773
0.184113	3.18748	0.117188	1.98344	0.429543	7.41859	0.4585	7.98835	0.54884	9.52476	0.704991	11.6395	0.321594	5.60467	0.462413	7.99613	0.576277	9.95487	0.685167	11.4439
0.184843	3.16546	0.118599	1.98605	0.433476	7.40561	0.460326	7.93275	0.551712	9.47066	0.706202	11.5852	0.32211	5.55246	0.46661	7.98142	0.578218	9.88045	0.685548	11.4227
0.185581	3.14406	0.120009	1.9886	0.437228	7.38987	0.462253	7.88007	0.554649	9.41881	0.707155	11.5426	0.322623	5.50133	0.470817	7.96719	0.580124	9.80704	0.686103	11.3925
0.186328	3.12325	0.121418	1.99109	0.440759	7.37076	0.464322	7.83091	0.557648	9.36911	0.707853	11.5116	0.323134	5.45126	0.475031	7.95338	0.581995	9.73459	0.686713	11.36
0.187084	3.10301	0.122828	1.99353	0.444028	7.34771	0.466577	7.7859	0.560705	9.32143	0.708298	11.4918	0.323644	5.40222	0.479252	7.93997	0.58383	9.66307	0.687556	11.3164
0.187847	3.08333	0.124237	1.99591	0.447001	7.32029	0.469061	7.74561	0.563818	9.27565	0.708937	11.4635	0.324153	5.3542	0.483477	7.92692	0.58563	9.59245	0.688643	11.2623
0.188618	3.06418	0.125646	1.99824	0.449661	7.28837	0.471808	7.71044	0.566983	9.23166	0.709629	11.433	0.324662	5.30716	0.487707	7.91419	0.587395	9.5227	0.689988	11.1983
0.189398	3.04555	0.127054	2.00051	0.452013	7.25215	0.474833	7.6805	0.570198	9.18937	0.710567	11.3917	0.325171	5.26109	0.491938	7.90176	0.589125	9.45382	0.691611	11.1251
0.190185	3.02741	0.128462	2.00274	0.45408	7.21213	0.47813	7.65551	0.573459	9.14868	0.711747	11.34	0.325681	5.21597	0.496171	7.8896	0.590821	9.38578	0.69353	11.0436
0.190979	3.00976	0.12987	2.00492	0.455897	7.16897	0.481675	7.63495	0.576764	9.10949	0.713164	11.2781	0.326192	5.17177	0.500402	7.87766	0.592484	9.31857	0.695511	10.9647
0.191782	2.99258	0.131277	2.00705	0.457504	7.1234	0.485433	7.61815	0.58011	9.07172	0.714812	11.2065	0.326705	5.12847	0.504632	7.86593	0.594116	9.2522	0.697554	10.8884
0.192591	2.97584	0.132685	2.00914	0.458938	7.07605	0.489367	7.6044	0.583495	9.03529	0.716684	11.1256	0.327219	5.08605	0.508858	7.85436	0.595718	9.18666	0.699657	10.8144
0.193408	2.95955	0.134092	2.01118	0.460231	7.02746	0.493442	7.59311	0.586916	9.00013	0.718535	11.0459	0.327736	5.04449	0.513077	7.84293	0.597291	9.12196	0.701819	10.7428
0.194233	2.94367	0.135498	2.01319	0.46141	6.97807	0.49763	7.58374	0.590371	8.96615	0.720365	10.9673	0.328254	5.00376	0.517289	7.8316	0.598839	9.05811	0.70404	10.6735
0.195064	2.92821	0.136905	2.01515	0.462495	6.92821	0.501907	7.5759	0.593858	8.9333			0.328776	4.96385	0.521491	7.82033	0.600365	8.99513	0.706319	10.6064
0.195903	2.91314	0.138311	2.01707	0.463502	6.87814	0.506254	7.56927	0.597374	8.90151			0.3293	4.92474	0.525679	7.80908	0.60187	8.93304	0.708654	10.5413
0.196748	2.89845	0.139717	2.01895	0.464446	6.82806	0.510658	7.56359	0.600918	8.87072			0.329827	4.88641	0.529853	7.79782	0.603359	8.87186	0.711043	10.4783
0.1976	2.88413	0.141123	2.02079	0.465337	6.77813	0.515108	7.55869	0.604488	8.84088			0.330357	4.84883	0.534007	7.78648	0.604837	8.81164	0.713487	10.4172
0.198459	2.87017	0.142528	2.0226	0.466181	6.72845	0.519594	7.5544	0.608082	8.81193			0.330891	4.81199	0.538139	7.77503	0.606306	8.75241	0.715982	10.358
0.199325	2.85656	0.143933	2.02437	0.466988	6.67911	0.52411	7.55063	0.611698	8.78383			0.331428	4.77588	0.542245	7.7634	0.607774	8.69421	0.718528	10.3006
