Sym0		Asym0		Sym1		Sym2		Sym3		Sym4		Asym1		Asym2		Asym3		Asym4	
424  Points		527  Points		424  Points		406  Points		352  Points		252  Points		455  Points		400  Points		344  Points		207  Points	
Freq (MHz)	Vgr (m/ms)	Freq (MHz)	Vgr (m/ms)	Freq (MHz)	Vgr (m/ms)	Freq (MHz)	Vgr (m/ms)	Freq (MHz)	Vgr (m/ms)	Freq (MHz)	Vgr (m/ms)	Freq (MHz)	Vgr (m/ms)	Freq (MHz)	Vgr (m/ms)	Freq (MHz)	Vgr (m/ms)	Freq (MHz)	Vgr (m/ms)
0.27951	0.0108298	0.000216198	0.215689	0.279514	0.0171266	0.449912	0.00623905	0.559017	0.00696845	0.838526	0.00566854	0.139755	0.0470062	0.419268	0.0182231	0.698771	0.00462017	0.899824	0.00527202
0.27952	0.0166495	0.000417155	0.250448	0.27953	0.0229004	0.449917	0.0120288	0.559024	0.0130436	0.838531	0.00883095	0.139799	0.0826907	0.419285	0.0244659	0.698776	0.00784197	0.899829	0.00804482
0.279541	0.0282492	0.00068288	0.319494	0.279556	0.0344357	0.449934	0.0236118	0.559041	0.0251166	0.838542	0.0150955	0.139909	0.153929	0.419314	0.0369688	0.698786	0.0142847	0.899839	0.0136533
0.279572	0.0398031	0.0010125	0.387641	0.279594	0.0460072	0.449961	0.0351324	0.55907	0.0371777	0.838559	0.0213258	0.140086	0.224774	0.419354	0.0494503	0.698802	0.0207982	0.899854	0.0193038
0.279615	0.0513386	0.00140521	0.454794	0.279642	0.0575779	0.449999	0.0466746	0.559111	0.0492882	0.838582	0.0275608	0.140328	0.294979	0.419406	0.0618888	0.698825	0.0273066	0.899875	0.0249651
0.279668	0.0629107	0.00185996	0.520764	0.279701	0.0691471	0.450048	0.0582599	0.559162	0.0613509	0.838611	0.0338053	0.140635	0.364345	0.419469	0.074388	0.698853	0.0337315	0.899901	0.0305749
0.279732	0.0744826	0.00237559	0.585322	0.279771	0.0807132	0.450108	0.0697849	0.559225	0.0733914	0.838645	0.0400686	0.141007	0.432765	0.419544	0.0868618	0.698888	0.0402093	0.899932	0.0361548
0.279807	0.086054	0.00295064	0.648447	0.279851	0.0922731	0.450178	0.081336	0.559299	0.0854607	0.838685	0.0462964	0.141442	0.500025	0.419631	0.0992852	0.698928	0.0467196	0.899968	0.0418215
0.279892	0.0976246	0.0035839	0.710025	0.279943	0.103821	0.45026	0.0928659	0.559384	0.0975143	0.838731	0.0525265	0.141939	0.565991	0.419729	0.111754	0.698975	0.0532216	0.90001	0.047442
0.279989	0.10912	0.00427369	0.769898	0.280045	0.115344	0.450351	0.104354	0.559481	0.109537	0.838783	0.058761	0.142496	0.630612	0.419839	0.124167	0.699027	0.059707	0.900056	0.0530434
0.280096	0.120686	0.00501852	0.828048	0.280158	0.126891	0.450454	0.115903	0.559588	0.121569	0.838841	0.0650045	0.143114	0.693643	0.419961	0.136615	0.699086	0.0661594	0.900108	0.0586796
0.280214	0.132245	0.00581667	0.884436	0.280281	0.138412	0.450567	0.127429	0.559707	0.133623	0.838904	0.0712658	0.143789	0.755033	0.420094	0.14906	0.699151	0.0726188	0.900166	0.0643126
0.280342	0.143718	0.00666657	0.938984	0.280416	0.149957	0.450692	0.13891	0.559837	0.145646	0.838974	0.0774897	0.144521	0.81475	0.420239	0.161425	0.699221	0.0790924	0.900228	0.0699388
0.280481	0.155238	0.00756636	0.991611	0.280561	0.161473	0.450826	0.150373	0.559979	0.157607	0.839049	0.0837118	0.145307	0.872661	0.420395	0.173851	0.699298	0.0855941	0.900296	0.0755515
0.280631	0.166779	0.00851433	1.04237	0.280717	0.172934	0.450972	0.161872	0.560131	0.16959	0.83913	0.0899304	0.146147	0.928792	0.420563	0.186251	0.699381	0.092079	0.900369	0.0811373
0.280792	0.178289	0.00950871	1.09131	0.280883	0.18443	0.451128	0.173371	0.560295	0.181617	0.839216	0.0961422	0.14692	0.976265	0.420742	0.198601	0.699469	0.0985304	0.900447	0.0867426
0.280964	0.189736	0.0105479	1.13835	0.28106	0.195922	0.451295	0.184798	0.560469	0.193587	0.839309	0.102413	0.14761	1.0156	0.420933	0.210923	0.699564	0.104988	0.900531	0.0923868
0.281146	0.201205	0.0116299	1.1835	0.281248	0.207408	0.451472	0.196225	0.560655	0.205515	0.839407	0.108657	0.1482	1.04736	0.421135	0.223262	0.699665	0.111457	0.900619	0.0980354
0.281338	0.212716	0.0127532	1.22687	0.281447	0.21888	0.45166	0.207654	0.560852	0.217432	0.839511	0.114845	0.14868	1.07183	0.421349	0.235635	0.699772	0.11795	0.900713	0.10362
0.281542	0.224167	0.013916	1.2684	0.281656	0.230325	0.451859	0.219086	0.56106	0.229328	0.839621	0.121068	0.14904	1.08981	0.421574	0.24793	0.699885	0.124419	0.900812	0.109222
0.281756	0.23557	0.0151167	1.30819	0.281876	0.241716	0.452069	0.230451	0.56128	0.241255	0.839737	0.127289	0.149273	1.10106	0.421811	0.260215	0.700004	0.130837	0.900917	0.11486
0.281981	0.247023	0.0163537	1.3463	0.282106	0.253146	0.452289	0.241829	0.56151	0.25317	0.839858	0.133506	0.149612	1.11684	0.422059	0.272481	0.700129	0.1373	0.901026	0.120424
0.282217	0.25843	0.0176254	1.38276	0.282348	0.26458	0.452519	0.253231	0.561751	0.264988	0.839986	0.139715	0.149987	1.1341	0.422318	0.284708	0.70026	0.143783	0.901141	0.126059
0.282463	0.269817	0.0189303	1.41759	0.282599	0.27595	0.45276	0.264537	0.562004	0.276833	0.840119	0.145906	0.150505	1.157	0.422589	0.296931	0.700397	0.150228	0.901261	0.131687
0.282719	0.28124	0.0202669	1.45084	0.282862	0.287336	0.453012	0.275869	0.562267	0.288658	0.840258	0.152137	0.151176	1.18533	0.422872	0.309146	0.70054	0.156675	0.901387	0.137233
0.282987	0.292586	0.0216338	1.48263	0.283135	0.298684	0.453275	0.287182	0.562542	0.300442	0.840402	0.158372	0.152008	1.21871	0.423165	0.321344	0.700689	0.163122	0.901517	0.14283
0.283264	0.303926	0.0230296	1.51296	0.283418	0.310025	0.453547	0.298453	0.562827	0.312219	0.840553	0.164545	0.153013	1.25652	0.42347	0.333508	0.700844	0.169571	0.901653	0.148457
0.283553	0.315254	0.024453	1.54192	0.283712	0.321356	0.453831	0.309718	0.563123	0.32398	0.840709	0.170737	0.154203	1.29835	0.423787	0.345605	0.701005	0.176024	0.901794	0.154073
0.283852	0.326557	0.0259028	1.56957	0.284017	0.332666	0.454124	0.320968	0.563431	0.335711	0.840871	0.176968	0.155432	1.33846	0.424114	0.357714	0.701172	0.182486	0.90194	0.159664
0.284161	0.337885	0.0273778	1.59594	0.284291	0.342483	0.454429	0.332189	0.563749	0.34738	0.841039	0.183133	0.156697	1.37686	0.424453	0.369847	0.701345	0.188889	0.902091	0.165207
0.284482	0.349186	0.0288767	1.62108	0.284531	0.350876	0.454743	0.34335	0.564078	0.359072	0.841212	0.18931	0.157998	1.41364	0.424804	0.381881	0.701524	0.195325	0.902248	0.1708
0.284812	0.360437	0.0303985	1.64506	0.284734	0.357796	0.455069	0.354541	0.564418	0.370737	0.841391	0.195512	0.159332	1.44884	0.425165	0.393865	0.701709	0.20175	0.902409	0.176419
0.285153	0.371659	0.0319421	1.66797	0.284897	0.363284	0.455404	0.365716	0.564769	0.38235	0.841576	0.201689	0.160698	1.48244	0.425538	0.405895	0.701899	0.208155	0.902576	0.182018
0.285505	0.382896	0.0335065	1.68977	0.285019	0.367374	0.45575	0.376787	0.565131	0.393929	0.841767	0.207892	0.162094	1.51459	0.425921	0.417868	0.702096	0.214594	0.902749	0.187575
0.285867	0.394092	0.0350908	1.71059	0.285097	0.369929	0.456106	0.38787	0.565503	0.405515	0.841964	0.214073	0.16352	1.54534	0.426316	0.429804	0.702299	0.221026	0.902926	0.193124
0.286239	0.405278	0.036694	1.73047	0.285211	0.373522	0.456473	0.398976	0.565886	0.417043	0.842166	0.220208	0.164974	1.57468	0.426722	0.441737	0.702508	0.227445	0.903109	0.19873
0.286622	0.416444	0.0383153	1.74944	0.285336	0.377502	0.45685	0.409982	0.56628	0.428525	0.842374	0.226399	0.166454	1.60274	0.427139	0.453591	0.702723	0.233838	0.903296	0.2043
0.287015	0.427571	0.0399539	1.76754	0.285508	0.382992	0.457237	0.421007	0.566685	0.43999	0.842588	0.232556	0.16796	1.62956	0.427567	0.465434	0.702944	0.240252	0.903489	0.209875
0.287419	0.43869	0.0416089	1.78475	0.285729	0.389891	0.457634	0.431998	0.5671	0.451422	0.842808	0.238717	0.169491	1.65513	0.428007	0.477254	0.703171	0.246633	0.903687	0.215458
0.287832	0.449796	0.0432796	1.80124	0.286002	0.398202	0.458042	0.44292	0.567526	0.462859	0.843033	0.244887	0.171044	1.67955	0.428457	0.48903	0.703404	0.253024	0.903891	0.220985
0.288257	0.460876	0.0449653	1.81699	0.286329	0.407948	0.458459	0.453851	0.567962	0.474235	0.843264	0.251001	0.17262	1.7029	0.428918	0.50079	0.703642	0.259435	0.904099	0.226545
0.288691	0.471903	0.0466654	1.83203	0.286714	0.419102	0.458887	0.464726	0.56841	0.485562	0.843501	0.257151	0.174217	1.72523	0.42939	0.512517	0.703887	0.26581	0.904313	0.232099
0.289136	0.482969	0.0483791	1.84635	0.28711	0.430245	0.459325	0.475564	0.568867	0.496862	0.843743	0.263298	0.175835	1.74654	0.429873	0.52418	0.704138	0.272189	0.904532	0.23764
0.289591	0.49397	0.0501059	1.86006	0.287516	0.441347	0.459774	0.486401	0.569335	0.50811	0.843991	0.269439	0.177472	1.7669	0.430367	0.535786	0.704394	0.278575	0.904756	0.24323
0.290057	0.504912	0.0518452	1.87319	0.287933	0.452427	0.460232	0.497234	0.569814	0.519326	0.844245	0.27557	0.179127	1.78638	0.430806	0.545929	0.704657	0.284974	0.904985	0.24877
0.290532	0.515882	0.0535963	1.88569	0.288359	0.463498	0.4607	0.507987	0.570303	0.530552	0.844505	0.281679	0.180801	1.80495	0.431187	0.554567	0.704925	0.291326	0.905219	0.254283
0.291018	0.526837	0.0553589	1.89764	0.288796	0.474526	0.461178	0.518652	0.570803	0.541725	0.84477	0.287817	0.182491	1.82276	0.431506	0.561638	0.7052	0.29766	0.905459	0.259817
0.291514	0.53776	0.0571324	1.90909	0.289243	0.48557	0.461667	0.529364	0.571313	0.552793	0.845041	0.293942	0.184197	1.8398	0.431762	0.567259	0.70548	0.304028	0.905703	0.265391
0.29202	0.54862	0.0589163	1.92005	0.289701	0.496585	0.4621	0.538663	0.571833	0.563868	0.845318	0.30004	0.185919	1.85605	0.431951	0.571339	0.705766	0.310392	0.905953	0.270899
0.292536	0.5595	0.0607102	1.93054	0.290169	0.507549	0.462476	0.546578	0.572363	0.574959	0.8456	0.306156	0.187656	1.8716	0.432073	0.573914	0.706058	0.316749	0.906208	0.276422
0.293062	0.570348	0.0625136	1.94055	0.290647	0.518524	0.46279	0.553079	0.572904	0.585935	0.845888	0.312236	0.189407	1.88649	0.432249	0.577752	0.706356	0.32309	0.906468	0.281975
0.293599	0.581129	0.0643262	1.95016	0.291135	0.529432	0.463042	0.558151	0.573455	0.596901	0.846182	0.318316	0.191171	1.90078	0.432442	0.581902	0.70666	0.3294	0.906734	0.287441
0.294145	0.591925	0.0661475	1.95934	0.291633	0.540305	0.463228	0.562089	0.574016	0.607847	0.846481	0.324398	0.192948	1.91444	0.432707	0.587415	0.70697	0.335721	0.907004	0.292954
0.294702	0.602676	0.0679772	1.96812	0.292142	0.551235	0.463348	0.56449	0.574588	0.618678	0.846786	0.330482	0.194738	1.9275	0.433045	0.594439	0.707286	0.342064	0.907279	0.298486
0.295268	0.613413	0.0698149	1.97659	0.29266	0.562084	0.463521	0.567824	0.575169	0.6295	0.847097	0.336571	0.19654	1.94007	0.433459	0.602919	0.707608	0.348378	0.90756	0.303984
0.295845	0.624121	0.0716604	1.98467	0.293189	0.572891	0.463711	0.571624	0.575761	0.640304	0.847414	0.34267	0.198353	1.9521	0.433953	0.612843	0.707935	0.354708	0.907846	0.309487
0.296431	0.634842	0.0735131	1.99241	0.293728	0.583715	0.463971	0.576723	0.576362	0.651074	0.847736	0.348717	0.200178	1.96361	0.434529	0.624175	0.708268	0.360995	0.908137	0.315
0.297028	0.645518	0.075373	1.99983	0.294277	0.594473	0.464303	0.583175	0.576974	0.661773	0.848063	0.354731	0.202012	1.97468	0.435116	0.635517	0.708608	0.36727	0.908433	0.320459
0.297634	0.656103	0.0772396	2.00698	0.294836	0.605236	0.464709	0.590937	0.577596	0.672405	0.848397	0.360826	0.203857	1.98527	0.435713	0.646792	0.708953	0.373596	0.908734	0.325957
0.29825	0.666726	0.0791128	2.01381	0.295405	0.615964	0.465193	0.600055	0.578145	0.681705	0.848736	0.366864	0.205712	1.99543	0.436321	0.657959	0.709304	0.379874	0.90904	0.331461
0.298877	0.677353	0.0809921	2.02037	0.295984	0.626674	0.465757	0.610469	0.57862	0.689565	0.84908	0.37286	0.207576	2.00524	0.436939	0.669145	0.709661	0.386132	0.909352	0.336901
0.299513	0.687914	0.0828775	2.02668	0.296572	0.637376	0.46633	0.620804	0.579016	0.695961	0.84943	0.378921	0.209448	2.01461	0.437568	0.680305	0.710023	0.392422	0.909668	0.342362
0.300158	0.698414	0.0847686	2.03269	0.297171	0.648037	0.466913	0.631134	0.579332	0.701113	0.849786	0.384962	0.21133	2.02361	0.438207	0.691378	0.710392	0.398704	0.90999	0.347864
0.300814	0.708942	0.0866652	2.0385	0.29778	0.658678	0.467506	0.641427	0.579566	0.704992	0.850148	0.390967	0.213219	2.03233	0.438856	0.702444	0.710766	0.404969	0.910316	0.353301
0.301479	0.719451	0.0885671	2.0441	0.298399	0.669272	0.468109	0.651663	0.579717	0.707404	0.850515	0.39697	0.215117	2.04064	0.439516	0.71347	0.711147	0.4112	0.910648	0.358756
0.302155	0.729921	0.0904742	2.04946	0.299027	0.679842	0.468721	0.661872	0.579934	0.710758	0.850888	0.40297	0.217022	2.04864	0.440186	0.724403	0.711533	0.417436	0.910985	0.364246
0.30284	0.740389	0.0923861	2.0546	0.299665	0.690401	0.469342	0.67203	0.580171	0.714464	0.851266	0.408965	0.218934	2.05634	0.440866	0.735326	0.711924	0.423682	0.911327	0.36966
0.303534	0.75085	0.0943027	2.05953	0.300314	0.700953	0.469973	0.682162	0.580495	0.719514	0.85165	0.414948	0.220853	2.06374	0.441556	0.746208	0.712322	0.429876	0.911674	0.375068
0.304148	0.759912	0.0962238	2.06428	0.300972	0.711466	0.470613	0.692209	0.580909	0.725935	0.852039	0.42091	0.22278	2.07092	0.442256	0.757032	0.712725	0.436111	0.912026	0.380536
0.304676	0.767617	0.0981493	2.06886	0.301639	0.721923	0.471263	0.70225	0.581414	0.733686	0.852434	0.426899	0.224712	2.07777	0.442967	0.767827	0.713135	0.442356	0.912383	0.385979
0.305117	0.773925	0.100079	2.07326	0.302317	0.732425	0.471922	0.71225	0.582013	0.742649	0.852834	0.432873	0.226651	2.08438	0.443687	0.778535	0.71355	0.448547	0.912745	0.391371
0.305469	0.778971	0.102013	2.07752	0.303004	0.742876	0.47259	0.722195	0.58271	0.752978	0.853241	0.438814	0.228596	2.09077	0.444417	0.789235	0.713916	0.453927	0.913112	0.39681
0.305728	0.7829	0.10395	2.08157	0.303701	0.753265	0.473267	0.732111	0.583417	0.763269	0.853652	0.444763	0.230547	2.09689	0.445158	0.799896	0.714232	0.458532	0.913484	0.402195
0.305895	0.785229	0.105891	2.0855	0.304408	0.763697	0.473954	0.741976	0.584132	0.773469	0.854069	0.45073	0.232504	2.10284	0.445908	0.810463	0.714495	0.462418	0.913861	0.407617
0.306136	0.788395	0.107836	2.08926	0.305124	0.774113	0.47465	0.751779	0.584858	0.783586	0.854492	0.456658	0.234466	2.10853	0.446668	0.82102	0.714705	0.465396	0.914244	0.413042
0.306399	0.792165	0.109784	2.09289	0.30585	0.784448	0.475355	0.761551	0.585593	0.793734	0.85492	0.46258	0.236433	2.11401	0.447438	0.831535	0.714861	0.467515	0.914631	0.418398
0.306759	0.79724	0.111736	2.09641	0.306586	0.794779	0.476069	0.771271	0.586337	0.803826	0.855354	0.468492	0.238405	2.11935	0.448217	0.841993	0.71496	0.468909	0.915023	0.423763
0.307217	0.803543	0.113691	2.09972	0.307331	0.805144	0.476792	0.780965	0.58709	0.813815	0.855793	0.474383	0.240382	2.12447	0.449007	0.852385	0.715104	0.470983	0.915421	0.429148
0.307776	0.811223	0.115649	2.10298	0.308086	0.815454	0.477524	0.79061	0.587853	0.823754	0.856238	0.480305	0.242363	2.12941	0.449806	0.862745	0.715261	0.473253	0.915823	0.43457
0.308438	0.820179	0.117357	2.10569	0.308851	0.825699	0.478265	0.800193	0.588625	0.833667	0.856688	0.486218	0.24435	2.13419	0.450614	0.873052	0.715476	0.476228	0.91623	0.439922
0.309207	0.830506	0.118815	2.10796	0.309625	0.835985	0.479015	0.809745	0.589407	0.843568	0.857144	0.49211	0.24634	2.13878	0.451433	0.883296	0.71575	0.479957	0.916643	0.445278
0.309986	0.840723	0.120022	2.10981	0.310408	0.846292	0.479774	0.819208	0.590197	0.853388	0.857605	0.497962	0.248335	2.14319	0.45226	0.893545	0.716083	0.484559	0.91706	0.450645
0.310774	0.850996	0.120977	2.11127	0.311202	0.856536	0.480542	0.828664	0.590997	0.863133	0.858072	0.503807	0.250334	2.14753	0.453098	0.903686	0.716479	0.48995	0.917482	0.455957
0.311571	0.861259	0.12168	2.11217	0.312005	0.866748	0.481318	0.83808	0.591806	0.872839	0.858483	0.508918	0.252337	2.15167	0.453944	0.913774	0.716938	0.496071	0.91791	0.46131
0.312379	0.87148	0.12213	2.11275	0.312817	0.876981	0.482103	0.847438	0.592623	0.882489	0.858837	0.513313	0.254343	2.15565	0.4548	0.923872	0.717403	0.502207	0.918342	0.466667
0.313195	0.881718	0.122777	2.11374	0.313639	0.887188	0.482897	0.856769	0.59345	0.892112	0.859132	0.516916	0.256354	2.15954	0.455666	0.933901	0.717874	0.508352	0.918779	0.471962
0.314022	0.891891	0.12348	2.11479	0.31447	0.897382	0.4837	0.866011	0.594286	0.901684	0.859366	0.519659	0.258367	2.16328	0.45654	0.943859	0.718351	0.514464	0.919222	0.477279
0.314857	0.902104	0.124438	2.11613	0.315311	0.907605	0.484511	0.87521	0.59513	0.911194	0.859539	0.521714	0.260385	2.16687	0.457424	0.953746	0.718833	0.520596	0.919669	0.48264
0.315702	0.912338	0.125649	2.11772	0.316161	0.917808	0.485331	0.884387	0.595984	0.920637	0.859651	0.523109	0.262405	2.17039	0.458318	0.963633	0.719321	0.526665	0.920062	0.487234
0.316557	0.922508	0.127116	2.11963	0.317021	0.927999	0.486159	0.893517	0.596846	0.930046	0.859811	0.525084	0.264429	2.17379	0.45922	0.973447	0.719814	0.532739	0.920401	0.491175
0.317421	0.932684	0.128838	2.12184	0.31789	0.938185	0.486996	0.902586	0.597717	0.939401	0.859986	0.527121	0.266456	2.17704	0.460132	0.983225	0.720313	0.538888	0.920683	0.494462
0.318295	0.942899	0.130816	2.12428	0.318769	0.948405	0.487841	0.911625	0.598596	0.948693	0.860225	0.529943	0.268486	2.18016	0.461052	0.992947	0.720818	0.544966	0.920907	0.497055
0.319178	0.953096	0.132796	2.1266	0.319658	0.958569	0.488695	0.920612	0.599484	0.957953	0.86053	0.533575	0.270518	2.18322	0.461982	1.00261	0.721329	0.550972	0.921073	0.498788
0.320071	0.963286	0.134778	2.12886	0.320555	0.968741	0.489556	0.929501	0.600381	0.967124	0.8609	0.537841	0.272554	2.18622	0.46292	1.01223	0.721845	0.55705	0.921179	0.499952
0.320973	0.973471	0.136763	2.13105	0.321463	0.978991	0.490427	0.938376	0.601287	0.976287	0.861339	0.542898	0.274592	2.18907	0.463868	1.02177	0.722367	0.563129	0.921333	0.501857
0.321885	0.98369	0.138749	2.13313	0.32238	0.989206	0.491305	0.947208	0.6022	0.985373	0.861848	0.548717	0.276633	2.19181	0.464824	1.0313	0.722894	0.569135	0.9215	0.503777
0.322806	0.993927	0.140738	2.13517	0.323306	0.999404	0.492192	0.955982	0.603123	0.994384	0.862362	0.554483	0.278676	2.19447	0.46579	1.04079	0.723427	0.575178	0.921729	0.506287
0.323737	1.00414	0.142728	2.13713	0.324242	1.00963	0.493086	0.964727	0.604053	1.00339	0.862881	0.560296	0.280722	2.19704	0.466764	1.05022	0.723966	0.581202	0.922019	0.509543
0.324678	1.01437	0.14472	2.13903	0.325187	1.01991	0.493989	0.973421	0.604992	1.01233	0.863406	0.566059	0.28277	2.19957	0.467747	1.05959	0.72451	0.58718	0.922373	0.51345
0.325627	1.02465	0.146714	2.14086	0.326142	1.03017	0.4949	0.982052	0.60594	1.02119	0.863936	0.571797	0.284821	2.20197	0.468738	1.06889	0.72506	0.593209	0.922792	0.518035
0.326587	1.03495	0.148709	2.14258	0.327107	1.04047	0.495819	0.990616	0.606895	1.03002	0.864471	0.577559	0.286873	2.20431	0.469738	1.07815	0.725616	0.599226	0.923277	0.523279
0.327556	1.04523	0.150706	2.14425	0.328081	1.05078	0.496746	0.999146	0.607859	1.03879	0.865012	0.583333	0.288928	2.20657	0.470747	1.08739	0.726177	0.605201	0.923767	0.528537
0.328535	1.05557	0.152705	2.14592	0.329065	1.06114	0.497681	1.00766	0.608831	1.04753	0.865558	0.589076	0.290985	2.20873	0.471765	1.09656	0.726744	0.611155	0.924262	0.533803
0.329523	1.06594	0.154705	2.14749	0.330059	1.07155	0.498624	1.01609	0.609811	1.05619	0.86611	0.594768	0.293044	2.21087	0.472791	1.10568	0.727316	0.617098	0.924762	0.538999
0.330521	1.07632	0.156706	2.14897	0.331062	1.08196	0.499574	1.02444	0.610799	1.06476	0.866666	0.60047	0.295105	2.2129	0.473825	1.11475	0.727893	0.623073	0.925266	0.544234
0.331528	1.08679	0.158709	2.15045	0.332075	1.0924	0.500533	1.0328	0.611795	1.07334	0.867228	0.606178	0.297167	2.21486	0.474868	1.12378	0.728477	0.629026	0.925776	0.549488
0.332546	1.09726	0.160714	2.15184	0.333097	1.10289	0.501499	1.04111	0.612799	1.08187	0.867796	0.611851	0.299232	2.21679	0.475919	1.13277	0.729066	0.634969	0.92629	0.554679
0.333573	1.10777	0.162719	2.1532	0.33413	1.11349	0.502473	1.04933	0.613811	1.09031	0.868369	0.617545	0.301298	2.21864	0.476979	1.14166	0.72966	0.64087	0.92681	0.559874
0.33461	1.11837	0.164726	2.15454	0.335172	1.12409	0.503454	1.05751	0.614831	1.09867	0.868947	0.623248	0.303366	2.22041	0.478046	1.15053	0.73026	0.646787	0.927334	0.565072
0.335657	1.12901	0.166734	2.15579	0.336224	1.13474	0.504443	1.06566	0.615858	1.10703	0.86953	0.628882	0.305436	2.22213	0.479122	1.15937	0.730865	0.652676	0.927863	0.570271
