Sym0		Asym0		Sym1		Sym2		Sym3		Sym4		Asym1		Asym2		Asym3		Asym4	
424  Points		527  Points		424  Points		406  Points		352  Points		252  Points		455  Points		400  Points		344  Points		207  Points	
Freq (MHz)	Vgr (m/ms)	Freq (MHz)	Vgr (m/ms)	Freq (MHz)	Vgr (m/ms)	Freq (MHz)	Vgr (m/ms)	Freq (MHz)	Vgr (m/ms)	Freq (MHz)	Vgr (m/ms)	Freq (MHz)	Vgr (m/ms)	Freq (MHz)	Vgr (m/ms)	Freq (MHz)	Vgr (m/ms)	Freq (MHz)	Vgr (m/ms)
0.27951	0.0107848	0.000223493	0.218596	0.279514	0.0170783	0.449907	0.00626831	0.559017	0.00695282	0.838526	0.00572073	0.139755	0.0469427	0.419268	0.0182551	0.698771	0.00461647	0.899815	0.00523971
0.27952	0.0165388	0.000427158	0.253325	0.27953	0.0228603	0.449913	0.0120218	0.559024	0.0130347	0.838531	0.00882687	0.139799	0.0826294	0.419285	0.0244388	0.698776	0.00781929	0.899819	0.00804651
0.27954	0.0280876	0.000695537	0.322357	0.279556	0.0344201	0.449929	0.0235696	0.559041	0.0251282	0.838542	0.0150691	0.139909	0.153874	0.419314	0.0369107	0.698786	0.0142784	0.89983	0.0136837
0.279572	0.0396864	0.00102783	0.390473	0.279594	0.0459676	0.449957	0.035166	0.55907	0.0371568	0.838559	0.021328	0.140086	0.22466	0.419354	0.0494035	0.698802	0.0207512	0.899845	0.0193185
0.279614	0.0512383	0.00142314	0.457565	0.279642	0.0574902	0.449995	0.0467134	0.559111	0.0492024	0.838582	0.027547	0.140328	0.294819	0.419406	0.0618647	0.698825	0.0272515	0.899866	0.0249483
0.279667	0.06277	0.00188046	0.523414	0.279701	0.0690363	0.450044	0.0582358	0.559162	0.0612819	0.838611	0.0337593	0.140635	0.364167	0.419469	0.0743359	0.698853	0.0337336	0.899891	0.0305684
0.279731	0.0743343	0.00239847	0.587875	0.279771	0.0806297	0.450103	0.0697817	0.559225	0.073356	0.838645	0.0400317	0.141006	0.43255	0.419544	0.0867539	0.698887	0.0401792	0.899923	0.036169
0.279806	0.0858907	0.0029759	0.650954	0.279851	0.0921708	0.450174	0.0813012	0.559299	0.085419	0.838685	0.0462776	0.141441	0.499809	0.419631	0.099212	0.698928	0.0466984	0.899959	0.0418036
0.279891	0.0974312	0.00361145	0.712437	0.279942	0.103681	0.450255	0.0928411	0.559384	0.0974602	0.838731	0.0524705	0.141938	0.565773	0.419729	0.111677	0.698974	0.053145	0.9	0.0474332
0.279987	0.10894	0.00430345	0.772196	0.280044	0.115202	0.450347	0.104349	0.55948	0.109458	0.838783	0.0587041	0.142495	0.630317	0.419839	0.124083	0.699027	0.059593	0.900047	0.0530528
0.280094	0.120458	0.00505035	0.830265	0.280157	0.126745	0.450449	0.115865	0.559588	0.121514	0.838841	0.0649456	0.143112	0.693341	0.41996	0.136516	0.699086	0.0661167	0.900099	0.0586524
0.280212	0.131996	0.00585055	0.886562	0.28028	0.138258	0.450563	0.127399	0.559707	0.133542	0.838904	0.0712031	0.143787	0.754716	0.420093	0.148931	0.69915	0.0725724	0.900157	0.0642852
0.28034	0.143499	0.00670236	0.941003	0.280415	0.149786	0.450687	0.138893	0.559837	0.145513	0.838973	0.0774193	0.144518	0.814404	0.420238	0.16131	0.699221	0.0790385	0.900219	0.0699111
0.280479	0.155007	0.00760401	0.993561	0.28056	0.16127	0.450822	0.150384	0.559978	0.157516	0.839048	0.0836261	0.145305	0.87233	0.420394	0.173691	0.699297	0.0855254	0.900287	0.0755233
0.280629	0.166522	0.00855375	1.04426	0.280715	0.172739	0.450967	0.161866	0.56013	0.16951	0.839129	0.0898873	0.146144	0.928418	0.420561	0.186074	0.69938	0.0919805	0.90036	0.0811812
0.28079	0.177982	0.00954987	1.09307	0.280881	0.184251	0.451123	0.173331	0.560294	0.181488	0.839216	0.0961108	0.146917	0.97588	0.420741	0.198463	0.699469	0.0984456	0.900438	0.086784
0.280961	0.189474	0.0105906	1.14	0.281058	0.195702	0.45129	0.184763	0.560468	0.193431	0.839308	0.102332	0.147606	1.01519	0.420931	0.21079	0.699564	0.10493	0.900522	0.0923502
0.281143	0.200961	0.0116741	1.18508	0.281246	0.20718	0.451468	0.1962	0.560654	0.205378	0.839407	0.10855	0.148197	1.04684	0.421133	0.223139	0.699664	0.111381	0.90061	0.0979893
0.281335	0.212362	0.0127988	1.22837	0.281444	0.218635	0.451656	0.207649	0.560851	0.217334	0.839511	0.114759	0.148676	1.07147	0.421347	0.235458	0.699771	0.117838	0.900704	0.103628
0.281538	0.223811	0.0139631	1.26983	0.281653	0.230047	0.451854	0.219047	0.561059	0.229235	0.83962	0.120952	0.149036	1.08935	0.421572	0.247718	0.699884	0.124306	0.900803	0.109192
0.281752	0.235284	0.015165	1.30955	0.281873	0.241444	0.452064	0.230418	0.561278	0.241098	0.839736	0.127185	0.149269	1.10059	0.421809	0.260008	0.700003	0.130724	0.900908	0.114828
0.281977	0.246657	0.0164033	1.34759	0.282103	0.252887	0.452284	0.241807	0.561508	0.25296	0.839857	0.133426	0.149608	1.11653	0.422057	0.272282	0.700128	0.137186	0.901017	0.120459
0.282212	0.25805	0.0176761	1.38392	0.282344	0.264273	0.452514	0.253159	0.56175	0.264817	0.839985	0.13961	0.149982	1.13361	0.422316	0.284526	0.700258	0.143667	0.901132	0.126008
0.282458	0.269484	0.018982	1.41869	0.282596	0.27562	0.452756	0.26451	0.562002	0.276665	0.840118	0.145825	0.150501	1.15649	0.422587	0.29671	0.700395	0.15011	0.901252	0.131614
0.282714	0.280853	0.0203197	1.45192	0.282858	0.287034	0.453007	0.275861	0.562265	0.288498	0.840256	0.152029	0.151171	1.18487	0.422869	0.308919	0.700538	0.156549	0.901377	0.13726
0.282981	0.292165	0.0216875	1.48358	0.283131	0.298364	0.45327	0.287136	0.562539	0.300298	0.840401	0.158212	0.152003	1.21824	0.423162	0.321106	0.700687	0.162983	0.901508	0.142838
0.283258	0.30351	0.0230842	1.51387	0.283414	0.30967	0.453542	0.298408	0.562825	0.312032	0.840551	0.164426	0.153007	1.25607	0.423467	0.333247	0.700842	0.169407	0.901643	0.148428
0.283547	0.314848	0.0245085	1.54282	0.283708	0.321004	0.453826	0.309672	0.563121	0.323783	0.840707	0.170627	0.154197	1.29784	0.423783	0.345373	0.701003	0.175881	0.901784	0.154041
0.283845	0.326171	0.0259591	1.57039	0.284012	0.332319	0.454119	0.320921	0.563428	0.335492	0.840869	0.176804	0.155426	1.33798	0.424111	0.357465	0.70117	0.18231	0.901931	0.159627
0.284154	0.337465	0.0274347	1.59666	0.284286	0.342146	0.454424	0.33214	0.563746	0.34719	0.841037	0.183006	0.156691	1.37637	0.42445	0.369564	0.701342	0.188724	0.902082	0.165234
0.284474	0.3487	0.0289343	1.62175	0.284526	0.350478	0.454738	0.343297	0.564075	0.358869	0.84121	0.189183	0.15799	1.4131	0.424799	0.381606	0.701521	0.195179	0.902238	0.170807
0.284804	0.359965	0.0304567	1.64571	0.284728	0.357412	0.455063	0.35448	0.564415	0.370507	0.841389	0.195386	0.159324	1.44828	0.425161	0.393603	0.701706	0.201572	0.9024	0.176387
0.285145	0.371214	0.0320009	1.66857	0.284891	0.362959	0.455399	0.365638	0.564765	0.382138	0.841574	0.201567	0.160689	1.48194	0.425533	0.405585	0.701897	0.207984	0.902567	0.181981
0.285496	0.382433	0.0335659	1.69036	0.285013	0.366802	0.455745	0.37675	0.565127	0.393681	0.841765	0.207703	0.162085	1.51408	0.425916	0.417539	0.702094	0.214438	0.902739	0.187529
0.285857	0.393592	0.0351506	1.71114	0.285091	0.369379	0.456101	0.38784	0.565499	0.405269	0.841961	0.213895	0.16351	1.54476	0.426311	0.429507	0.702296	0.220826	0.902917	0.193133
0.286229	0.404777	0.0367544	1.73095	0.285205	0.37321	0.456467	0.398888	0.565882	0.416799	0.842163	0.220053	0.164964	1.57413	0.426717	0.441432	0.702505	0.227229	0.903099	0.1987
0.286612	0.415942	0.0383761	1.74985	0.285329	0.377149	0.456844	0.409924	0.566276	0.428287	0.842371	0.226219	0.166444	1.60218	0.427134	0.45327	0.70272	0.233665	0.903287	0.204269
0.287004	0.427064	0.040015	1.76795	0.285501	0.382562	0.457231	0.420936	0.56668	0.439763	0.842585	0.232396	0.167949	1.62895	0.427561	0.465081	0.70294	0.240017	0.90348	0.209839
0.287407	0.438177	0.0416705	1.78517	0.285722	0.389435	0.457628	0.431901	0.567095	0.451144	0.842804	0.238526	0.169479	1.65457	0.428	0.47691	0.703167	0.246423	0.903678	0.215413
0.287821	0.449269	0.0433415	1.8016	0.285995	0.397799	0.458036	0.442845	0.567521	0.462552	0.843029	0.244708	0.171032	1.67902	0.42845	0.488704	0.7034	0.252863	0.903881	0.220996
0.288245	0.46032	0.0450276	1.81732	0.286322	0.407531	0.458454	0.453746	0.567957	0.473944	0.84326	0.250844	0.172608	1.70231	0.428911	0.500427	0.703638	0.259225	0.90409	0.226521
0.288679	0.471364	0.0467279	1.83229	0.286707	0.418641	0.458881	0.464635	0.568404	0.485301	0.843497	0.256965	0.174204	1.72464	0.429382	0.512154	0.703883	0.265576	0.904303	0.232077
0.289123	0.48239	0.0484418	1.84661	0.287102	0.429762	0.459319	0.475499	0.568861	0.496589	0.843739	0.263127	0.175821	1.74596	0.429865	0.523815	0.704133	0.271979	0.904522	0.237624
0.289577	0.493385	0.0501689	1.86032	0.287507	0.440889	0.459768	0.486316	0.569329	0.507812	0.843987	0.269227	0.177458	1.76628	0.430359	0.535419	0.704389	0.278341	0.904746	0.243151
0.290042	0.504387	0.0519083	1.87338	0.287923	0.451982	0.460226	0.497108	0.569808	0.519053	0.844241	0.275346	0.179113	1.78578	0.430797	0.545554	0.704652	0.284691	0.904975	0.248713
0.290517	0.515332	0.0536597	1.88588	0.28835	0.463022	0.460694	0.507854	0.570296	0.530255	0.8445	0.281506	0.180785	1.80439	0.431178	0.554121	0.70492	0.291093	0.905209	0.254269
0.291003	0.526237	0.0554225	1.89785	0.288786	0.474071	0.461172	0.518578	0.570796	0.541381	0.844765	0.2876	0.182475	1.82216	0.431497	0.561251	0.705194	0.297452	0.905449	0.259815
0.291498	0.537132	0.0571961	1.90925	0.289233	0.485089	0.46166	0.529259	0.571305	0.552499	0.845036	0.293708	0.184181	1.83917	0.431752	0.566897	0.705474	0.303798	0.905694	0.265341
0.292003	0.548009	0.0589801	1.92019	0.28969	0.496055	0.462094	0.538583	0.571825	0.563602	0.845313	0.299847	0.185902	1.85544	0.431942	0.570987	0.70576	0.310118	0.905943	0.270826
0.292519	0.55885	0.0607742	1.93065	0.290157	0.507031	0.462469	0.546483	0.572355	0.574603	0.845595	0.305898	0.187638	1.87097	0.432064	0.573542	0.706052	0.31646	0.906198	0.276376
0.293045	0.569693	0.0625777	1.94065	0.290635	0.517975	0.462784	0.552946	0.572896	0.585618	0.845883	0.311995	0.189388	1.88588	0.43224	0.577332	0.70635	0.322843	0.906458	0.281911
0.293581	0.580539	0.0643904	1.95025	0.291122	0.528904	0.463035	0.557993	0.573447	0.596588	0.846176	0.31811	0.191152	1.90018	0.432433	0.581522	0.706654	0.329165	0.906724	0.287413
0.294127	0.591317	0.0662118	1.95942	0.29162	0.539789	0.463221	0.561818	0.574008	0.60747	0.846475	0.324187	0.192929	1.91382	0.432697	0.587007	0.706963	0.335437	0.906994	0.292924
0.294682	0.602034	0.0680415	1.96823	0.292128	0.550687	0.463341	0.564301	0.574579	0.61832	0.84678	0.330262	0.194718	1.92689	0.433035	0.593992	0.707279	0.341756	0.907269	0.298454
0.295248	0.612775	0.0698793	1.97663	0.292646	0.56152	0.463515	0.567726	0.57516	0.62918	0.847091	0.336332	0.19652	1.93944	0.433449	0.602501	0.7076	0.348094	0.90755	0.303947
0.295824	0.62349	0.0717247	1.9847	0.293175	0.57232	0.463704	0.571484	0.575751	0.639987	0.847407	0.342395	0.198332	1.95146	0.433942	0.612443	0.707927	0.354398	0.907836	0.309439
0.29641	0.634152	0.0735776	1.99244	0.293713	0.583176	0.463964	0.576611	0.576352	0.650688	0.847729	0.34844	0.200156	1.963	0.434518	0.623749	0.708261	0.360707	0.908127	0.314931
0.297006	0.644784	0.0754374	1.99985	0.294261	0.593914	0.464296	0.583036	0.576964	0.661396	0.848056	0.354525	0.20199	1.97401	0.435104	0.635041	0.7086	0.367027	0.908423	0.320422
0.297612	0.655429	0.0773041	2.00699	0.29482	0.60463	0.464702	0.590852	0.577585	0.672046	0.848389	0.360542	0.203834	1.9846	0.435701	0.646327	0.708944	0.373293	0.908724	0.32591
0.298227	0.666097	0.0791772	2.01378	0.295388	0.615408	0.465185	0.599922	0.578134	0.681314	0.848728	0.36657	0.205688	1.99481	0.436309	0.657536	0.709295	0.379528	0.90903	0.331392
0.298853	0.676667	0.0810566	2.02035	0.295966	0.626107	0.465749	0.610306	0.578608	0.689197	0.849072	0.372622	0.207552	2.0046	0.436927	0.668707	0.709652	0.385846	0.909341	0.336864
0.299488	0.687186	0.0829419	2.02666	0.296555	0.636766	0.466323	0.620662	0.579005	0.695694	0.849422	0.378645	0.209424	2.014	0.437555	0.679823	0.710014	0.392109	0.909658	0.342316
0.300133	0.697752	0.084833	2.0327	0.297153	0.647406	0.466906	0.630967	0.579321	0.700797	0.849778	0.384686	0.211304	2.02298	0.438193	0.69091	0.710382	0.398335	0.909979	0.347798
0.300788	0.708262	0.0867296	2.03848	0.297761	0.658036	0.467498	0.641283	0.579555	0.704448	0.850139	0.39069	0.213193	2.03165	0.438842	0.701984	0.710756	0.404637	0.910306	0.35327
0.301453	0.718737	0.0886315	2.04403	0.298379	0.668661	0.468101	0.651531	0.579705	0.706843	0.850506	0.39669	0.21509	2.03997	0.439501	0.712977	0.711136	0.410868	0.910637	0.358721
0.302128	0.729213	0.0905385	2.04941	0.299007	0.679247	0.468712	0.661709	0.579922	0.710338	0.850878	0.402685	0.216995	2.04798	0.440171	0.72393	0.711522	0.417103	0.910974	0.364129
0.302812	0.739691	0.0924504	2.05454	0.299645	0.689777	0.469334	0.671852	0.580159	0.714084	0.851256	0.408669	0.218906	2.05572	0.44085	0.734827	0.711914	0.423349	0.911316	0.3696
0.303506	0.750101	0.0943669	2.05946	0.300292	0.700315	0.469964	0.681977	0.580483	0.719159	0.85164	0.414632	0.220825	2.0631	0.44154	0.745695	0.712311	0.429543	0.911663	0.375047
0.304119	0.75915	0.0962879	2.06423	0.30095	0.710821	0.470605	0.692056	0.580896	0.725551	0.852029	0.420624	0.222751	2.07024	0.44224	0.756549	0.712714	0.435777	0.912015	0.380448
0.304647	0.766853	0.0982133	2.06881	0.301617	0.721311	0.471254	0.702076	0.581401	0.733269	0.852424	0.426603	0.224683	2.0771	0.44295	0.767286	0.713123	0.44202	0.912372	0.385903
0.305087	0.773296	0.100143	2.0732	0.302294	0.731793	0.471913	0.71203	0.582	0.742292	0.852824	0.432554	0.226621	2.08372	0.44367	0.778038	0.713538	0.448207	0.912734	0.39132
0.305439	0.778348	0.102077	2.07743	0.302981	0.742197	0.472581	0.721988	0.582697	0.752622	0.85323	0.438525	0.228566	2.09011	0.4444	0.788724	0.713904	0.453586	0.913101	0.396734
0.305698	0.781976	0.104014	2.0815	0.303677	0.752636	0.473258	0.73191	0.583403	0.76284	0.853641	0.444461	0.230516	2.09623	0.445139	0.79934	0.714219	0.458167	0.913473	0.402144
0.305865	0.784308	0.105955	2.08539	0.304383	0.763056	0.473945	0.741742	0.584118	0.773039	0.854058	0.450399	0.232472	2.10215	0.445889	0.809958	0.714482	0.461951	0.91385	0.407542
0.306106	0.787761	0.1079	2.08916	0.305099	0.773393	0.47464	0.751566	0.584843	0.783193	0.85448	0.456343	0.234433	2.10785	0.446649	0.820468	0.714692	0.464979	0.914233	0.412919
0.306368	0.791508	0.109848	2.0928	0.305824	0.783761	0.475345	0.761348	0.585578	0.793323	0.854908	0.462226	0.236399	2.11334	0.447418	0.830959	0.714847	0.467326	0.91462	0.418326
0.306728	0.796478	0.1118	2.09627	0.306559	0.794146	0.476059	0.771073	0.586321	0.803369	0.855342	0.468132	0.238371	2.11865	0.448197	0.841442	0.714947	0.468646	0.915012	0.423719
0.307185	0.80278	0.113754	2.09964	0.307304	0.804465	0.476782	0.780733	0.587075	0.813372	0.855781	0.474085	0.240347	2.12379	0.448986	0.851847	0.715091	0.470559	0.915409	0.429087
0.307744	0.810452	0.115712	2.10292	0.308058	0.814752	0.477514	0.79036	0.587837	0.823354	0.856225	0.479985	0.242328	2.12871	0.449784	0.862176	0.715248	0.472882	0.915812	0.434475
0.308405	0.819449	0.117421	2.1056	0.308822	0.825022	0.478255	0.799934	0.588609	0.833253	0.856675	0.485852	0.244314	2.13347	0.450593	0.872468	0.715462	0.47583	0.916219	0.439832
0.309173	0.829716	0.118879	2.10782	0.309596	0.835284	0.479004	0.809482	0.58939	0.843109	0.85713	0.491728	0.246304	2.13809	0.45141	0.88274	0.715736	0.479608	0.916631	0.445199
0.309951	0.839976	0.120086	2.1097	0.310379	0.845578	0.479763	0.81898	0.59018	0.852945	0.857591	0.497619	0.248298	2.14252	0.452237	0.892967	0.716069	0.484201	0.917048	0.450513
0.310739	0.850234	0.121041	2.11113	0.311171	0.855816	0.48053	0.828417	0.590979	0.862696	0.858058	0.503468	0.250296	2.14683	0.453074	0.903098	0.716465	0.489541	0.917471	0.455868
0.311536	0.860489	0.121743	2.11209	0.311973	0.866062	0.481307	0.837823	0.591787	0.872406	0.858469	0.508591	0.252298	2.15096	0.45392	0.913217	0.716924	0.495669	0.917898	0.461232
0.312342	0.870707	0.122193	2.11275	0.312785	0.876312	0.482092	0.84714	0.592605	0.882095	0.858822	0.512911	0.254304	2.15496	0.454776	0.923293	0.717388	0.501846	0.91833	0.466539
0.313158	0.880943	0.12284	2.11364	0.313606	0.88649	0.482885	0.856449	0.593431	0.891664	0.859117	0.51653	0.256314	2.15883	0.455641	0.933275	0.717859	0.507974	0.918767	0.471879
0.313984	0.891152	0.123543	2.11458	0.314437	0.89667	0.483688	0.865718	0.594266	0.901209	0.859351	0.519297	0.258327	2.16256	0.456515	0.943247	0.718335	0.514041	0.919209	0.477212
0.314819	0.901346	0.124501	2.11599	0.315277	0.906887	0.484498	0.87493	0.59511	0.910742	0.859524	0.521362	0.260344	2.16618	0.457398	0.953176	0.718817	0.520151	0.919656	0.482533
0.315663	0.911534	0.125712	2.11763	0.316127	0.917085	0.485318	0.884114	0.595963	0.920196	0.859635	0.522828	0.262364	2.16968	0.458291	0.963012	0.719304	0.526282	0.92005	0.487121
0.316517	0.921718	0.127179	2.11952	0.316986	0.927275	0.486146	0.89321	0.596825	0.929574	0.859796	0.524776	0.264387	2.17308	0.459193	0.972837	0.719797	0.532351	0.920389	0.491051
0.317381	0.931937	0.1289	2.12171	0.317855	0.93746	0.486982	0.902263	0.597695	0.938914	0.859971	0.526759	0.266413	2.17631	0.460104	0.98262	0.720296	0.538424	0.920671	0.49432
0.318254	0.942137	0.130878	2.12415	0.318733	0.947643	0.487827	0.911294	0.598575	0.948235	0.86021	0.529557	0.268442	2.17947	0.461024	0.992309	0.720801	0.544537	0.920895	0.496991
0.319136	0.95229	0.132858	2.1265	0.31962	0.957862	0.48868	0.92024	0.599462	0.957509	0.860514	0.533129	0.270474	2.18255	0.461953	1.00199	0.721311	0.55056	0.921061	0.498788
0.320028	0.962457	0.134841	2.12874	0.320518	0.968025	0.489542	0.929181	0.600359	0.966688	0.860884	0.537505	0.272509	2.18548	0.462891	1.01159	0.721826	0.556611	0.921167	0.499952
0.32093	0.972668	0.136825	2.13092	0.321424	0.978233	0.490412	0.938046	0.601264	0.975781	0.861323	0.542535	0.274546	2.1883	0.463838	1.02115	0.722348	0.562676	0.92132	0.501758
0.321841	0.9829	0.138811	2.13304	0.32234	0.988428	0.49129	0.946837	0.602177	0.984869	0.861831	0.54833	0.276587	2.19106	0.464794	1.03069	0.722875	0.568712	0.921488	0.503574
0.322761	0.993107	0.1408	2.13505	0.323266	0.998652	0.492176	0.955663	0.603099	0.993917	0.862344	0.55412	0.278629	2.19377	0.465758	1.04015	0.723408	0.574732	0.921716	0.506139
0.323691	1.00334	0.14279	2.13701	0.324201	1.00893	0.493071	0.964361	0.604029	1.00291	0.862863	0.559872	0.280674	2.19632	0.466732	1.04956	0.723946	0.580746	0.922007	0.509451
0.324631	1.01358	0.144782	2.1389	0.325146	1.01916	0.493973	0.973031	0.604968	1.01184	0.863388	0.565677	0.282722	2.19881	0.467714	1.05892	0.72449	0.586792	0.922361	0.513339
0.32558	1.02383	0.146776	2.14073	0.3261	1.0294	0.494884	0.981687	0.605915	1.02073	0.863917	0.571436	0.284772	2.20127	0.468705	1.06825	0.725039	0.592781	0.922779	0.517913
0.326539	1.03408	0.148771	2.14245	0.327064	1.03968	0.495802	0.990227	0.60687	1.02954	0.864453	0.577172	0.286824	2.20359	0.469705	1.07753	0.725594	0.598742	0.923264	0.52315
0.327507	1.0444	0.150768	2.14415	0.328038	1.05002	0.496729	0.998745	0.607833	1.0383	0.864993	0.582897	0.288878	2.20581	0.470713	1.08671	0.726155	0.604726	0.923754	0.528405
0.328485	1.05477	0.152766	2.14577	0.329021	1.06039	0.497663	1.00725	0.608804	1.04703	0.865539	0.588616	0.290934	2.20803	0.47173	1.09588	0.726721	0.610684	0.924249	0.533669
0.329472	1.06507	0.154766	2.14731	0.330014	1.07078	0.498606	1.01568	0.609784	1.05569	0.86609	0.594331	0.292992	2.21012	0.472755	1.10504	0.727293	0.616629	0.924748	0.538901
0.330469	1.0755	0.156768	2.14885	0.331016	1.08117	0.499556	1.02403	0.610772	1.06426	0.866646	0.600082	0.295052	2.21216	0.473789	1.11409	0.72787	0.622604	0.925253	0.544118
0.331476	1.08595	0.15877	2.15035	0.332028	1.09161	0.500514	1.03238	0.611767	1.07284	0.867208	0.605778	0.297114	2.21413	0.474831	1.12308	0.728453	0.628559	0.925762	0.549326
0.332493	1.09638	0.160774	2.15173	0.33305	1.10213	0.50148	1.04066	0.612771	1.08137	0.867775	0.611445	0.299178	2.21603	0.475882	1.13208	0.729041	0.634465	0.926277	0.55453
0.333519	1.10694	0.16278	2.15307	0.334082	1.11271	0.502453	1.0489	0.613782	1.08978	0.868347	0.617135	0.301244	2.21789	0.47694	1.14102	0.729635	0.640385	0.926796	0.559732
0.334556	1.11753	0.164786	2.15441	0.335124	1.12327	0.503434	1.05709	0.614801	1.09819	0.868925	0.6228	0.303311	2.21967	0.478008	1.14988	0.730235	0.646311	0.92732	0.56497
0.335602	1.12813	0.166794	2.15566	0.336175	1.13393	0.504423	1.06521	0.615829	1.10657	0.869508	0.628452	0.30538	2.22136	0.479083	1.1587	0.73084	0.652204	0.927848	0.570152
