Sym0		Asym0		Sym1		Sym2		Sym3		Sym4		Asym1		Asym2		Asym3	
458  Points		492  Points		175  Points		140  Points		120  Points		92  Points		310  Points		153  Points		122  Points	
Freq (MHz)	Vgr (m/ms)	Freq (MHz)	Vgr (m/ms)	Freq (MHz)	Vgr (m/ms)	Freq (MHz)	Vgr (m/ms)	Freq (MHz)	Vgr (m/ms)	Freq (MHz)	Vgr (m/ms)	Freq (MHz)	Vgr (m/ms)	Freq (MHz)	Vgr (m/ms)	Freq (MHz)	Vgr (m/ms)
0.00249329	7.374	0.000428891	0.519928	0.279523	0.139509	0.520099	0.0374691	0.559056	0.135726	0.838543	0.0702725	0.139776	0.322358	0.419269	0.0905447	0.698786	0.0742416
0.00936361	7.37315	0.000913305	0.612347	0.279653	0.21231	0.520133	0.058719	0.559182	0.182666	0.838608	0.0963513	0.140076	0.510706	0.419354	0.142633	0.698855	0.10477
0.0162323	7.37088	0.00156993	0.792414	0.279918	0.357618	0.520208	0.101448	0.559396	0.276464	0.838722	0.148513	0.140727	0.884149	0.419535	0.24675	0.698981	0.165887
0.0230984	7.36736	0.00238988	0.962117	0.280319	0.50219	0.520322	0.144646	0.559697	0.369871	0.838885	0.200689	0.141724	1.24937	0.419813	0.350688	0.699164	0.226965
0.0299606	7.3626	0.00336273	1.12003	0.280854	0.645874	0.520477	0.188414	0.560085	0.462714	0.839096	0.252819	0.143055	1.60335	0.420189	0.454339	0.699404	0.287962
0.0368178	7.35658	0.00447693	1.2652	0.281523	0.788368	0.520674	0.232958	0.56056	0.554944	0.839356	0.304857	0.144711	1.94362	0.42066	0.557637	0.699701	0.348872
0.0436688	7.34925	0.0057203	1.39727	0.282323	0.929363	0.520912	0.278392	0.56112	0.646386	0.839664	0.356857	0.146677	2.26837	0.421228	0.66045	0.700054	0.409683
0.0505123	7.34065	0.00708059	1.51623	0.283254	1.06875	0.521192	0.324877	0.561764	0.736984	0.840021	0.408782	0.148938	2.57626	0.421891	0.76273	0.700464	0.470366
0.0573473	7.33071	0.00854563	1.62248	0.284315	1.20624	0.521517	0.372582	0.562493	0.826702	0.840426	0.460631	0.151478	2.86654	0.422649	0.864458	0.70093	0.530868
0.0641723	7.31933	0.0101039	1.71661	0.285502	1.34162	0.521887	0.421557	0.563305	0.915391	0.84088	0.5124	0.15428	3.13891	0.423502	0.965449	0.701453	0.5913
0.0709861	7.3066	0.0117443	1.7994	0.286815	1.47475	0.522302	0.471899	0.564199	1.00297	0.841381	0.56401	0.157327	3.3934	0.424448	1.06562	0.702032	0.65152
0.0777874	7.29241	0.0134569	1.87174	0.28825	1.60538	0.522766	0.523805	0.565174	1.08952	0.84193	0.61552	0.160603	3.63049	0.425487	1.16505	0.702667	0.711536
0.0845747	7.27664	0.0152321	1.93461	0.289806	1.73341	0.523279	0.577299	0.566229	1.17493	0.842528	0.666905	0.164092	3.85075	0.426619	1.26355	0.703358	0.771363
0.0913466	7.25938	0.0170618	1.98902	0.29148	1.85873	0.523842	0.632358	0.567363	1.25918	0.843173	0.718185	0.167778	4.0549	0.427842	1.36101	0.704105	0.830958
0.0981017	7.24046	0.0189384	2.03579	0.29327	1.9812	0.524457	0.689156	0.568575	1.34229	0.843866	0.769328	0.171648	4.24393	0.429155	1.45751	0.704907	0.890309
0.104838	7.21983	0.0208553	2.0758	0.295172	2.10074	0.525126	0.747748	0.569864	1.4242	0.844607	0.820273	0.175686	4.41873	0.430558	1.55295	0.705764	0.949391
0.111555	7.19747	0.0228065	2.10997	0.297184	2.21728	0.52585	0.808095	0.571229	1.50498	0.845395	0.87104	0.179882	4.5804	0.432049	1.64722	0.706676	1.00823
0.11825	7.17318	0.024787	2.13897	0.299304	2.33084	0.526632	0.870268	0.572668	1.58456	0.84623	0.92167	0.183655	4.71137	0.433627	1.74024	0.707642	1.0668
0.124922	7.14693	0.0267922	2.16344	0.301527	2.44136	0.527472	0.934337	0.574182	1.66302	0.847112	0.972099	0.186953	4.81598	0.435291	1.83204	0.708664	1.12505
0.131568	7.11869	0.0288183	2.18409	0.303853	2.54881	0.528373	1.00022	0.575767	1.74039	0.848041	1.02235	0.189734	4.89789	0.437041	1.9226	0.709739	1.18297
0.138186	7.08827	0.0305983	2.19945	0.306277	2.65325	0.529336	1.06797	0.577425	1.81662	0.849017	1.07238	0.191965	4.95973	0.438874	2.01182	0.710868	1.24057
0.144776	7.05557	0.0321247	2.21071	0.308797	2.75475	0.530363	1.1377	0.579152	1.89181	0.850039	1.12221	0.193622	5.00369	0.44079	2.09965	0.71205	1.29784
0.151334	7.02048	0.0333924	2.21893	0.31141	2.85338	0.531456	1.20926	0.58095	1.96595	0.851108	1.17183	0.194691	5.03118	0.442786	2.18609	0.713286	1.35474
0.157858	6.98283	0.034398	2.22479	0.314114	2.94928	0.532616	1.28272	0.582816	2.03901	0.852223	1.2212	0.196237	5.06961	0.444863	2.27109	0.714575	1.41127
0.164345	6.94254	0.035139	2.22881	0.316906	3.0425	0.533846	1.3581	0.584749	2.11114	0.853384	1.27035	0.197931	5.11017	0.447018	2.35467	0.715916	1.46741
0.170794	6.89945	0.0356139	2.2312	0.319783	3.13321	0.535147	1.43531	0.58675	2.18232	0.85459	1.31922	0.200256	5.16353	0.449251	2.43679	0.717309	1.52316
0.177202	6.85333	0.0362974	2.23431	0.322744	3.2216	0.53652	1.51438	0.588816	2.25253	0.855842	1.36788	0.20323	5.22798	0.451559	2.51739	0.718754	1.57854
0.183565	6.8041	0.0370414	2.23759	0.325786	3.30787	0.537969	1.59531	0.590947	2.32183	0.857139	1.41628	0.206874	5.30179	0.453942	2.59649	0.720251	1.6335
0.18988	6.75155	0.038055	2.24173	0.328908	3.39221	0.539493	1.67807	0.593142	2.39027	0.858481	1.46438	0.211213	5.3829	0.456397	2.67412	0.721798	1.68804
0.196146	6.69553	0.0393394	2.24628	0.332107	3.47484	0.541095	1.76252	0.595401	2.45793	0.859868	1.51223	0.21627	5.46918	0.458925	2.75021	0.723396	1.74212
0.202357	6.63586	0.0408959	2.2511	0.335383	3.55602	0.542777	1.84872	0.597722	2.5247	0.861299	1.55981	0.221404	5.54884	0.461522	2.82474	0.725044	1.79572
0.208511	6.57233	0.0427257	2.25583	0.338298	3.62579	0.54454	1.9366	0.600105	2.5907	0.862774	1.60706	0.22661	5.62214	0.464188	2.89778	0.726742	1.84893
0.214604	6.50481	0.0448297	2.26025	0.340828	3.68464	0.546386	2.02608	0.60255	2.65598	0.864294	1.65404	0.231881	5.68959	0.466922	2.96929	0.72849	1.90166
0.220632	6.43313	0.0469374	2.26374	0.342951	3.733	0.548316	2.11707	0.605055	2.72048	0.865856	1.70076	0.237212	5.75154	0.469721	3.0393	0.730286	1.95388
0.226591	6.35715	0.0490479	2.26637	0.344649	3.77101	0.550331	2.20949	0.607619	2.7843	0.867463	1.74711	0.242598	5.80842	0.472585	3.10777	0.73213	2.00566
0.232478	6.27674	0.0511605	2.26834	0.345908	3.79894	0.552433	2.30329	0.610243	2.84749	0.869112	1.79315	0.248035	5.86062	0.475512	3.17475	0.734023	2.05699
0.238287	6.19173	0.0532747	2.26977	0.346719	3.81677	0.554623	2.39837	0.612925	2.91006	0.870804	1.83893	0.253519	5.90833	0.478501	3.24031	0.735963	2.1078
0.244015	6.10213	0.05539	2.2707	0.347892	3.84239	0.556902	2.49457	0.615665	2.972	0.872539	1.88436	0.259045	5.95195	0.48155	3.30433	0.737951	2.15808
0.249658	6.0079	0.0575059	2.2712	0.349175	3.87021	0.559271	2.59175	0.618463	3.0334	0.874315	1.92943	0.264609	5.99171	0.484658	3.3669	0.739985	2.20789
0.25521	5.90901	0.0596221	2.27142	0.350935	3.90786	0.561731	2.68987	0.621318	3.09425	0.876134	1.97417	0.270209	6.02782	0.487824	3.42809	0.742065	2.25719
0.260669	5.80556	0.0617385	2.27138	0.353185	3.95558	0.564283	2.7887	0.624229	3.15456	0.877994	2.0186	0.275842	6.06059	0.491046	3.48785	0.744191	2.30597
0.266028	5.69762	0.0638546	2.2711	0.355943	4.01342	0.566928	2.88808	0.627196	3.21446	0.879895	2.06272	0.281503	6.09009	0.494323	3.54622	0.746362	2.35425
0.271285	5.58544	0.0659704	2.27067	0.359229	4.08147	0.569665	2.98788	0.630219	3.27392	0.881838	2.10642	0.28719	6.11655	0.497654	3.60327	0.748578	2.40203
0.276436	5.46926	0.0680857	2.27005	0.363068	4.15998	0.572495	3.08794	0.633297	3.33299	0.883821	2.14981	0.2929	6.14019	0.501038	3.65899	0.750838	2.44926
0.281477	5.3494	0.0702004	2.26938	0.366981	4.23904	0.575419	3.18809	0.636429	3.39174	0.885844	2.19286	0.298631	6.16105	0.504472	3.71338	0.753142	2.49595
0.286404	5.22629	0.0723145	2.26864	0.370967	4.31893	0.578436	3.28804	0.639617	3.45013	0.887907	2.23552	0.304381	6.17932	0.507957	3.76657	0.755489	2.54217
0.291215	5.10033	0.0744278	2.26775	0.375028	4.39963	0.581546	3.38767	0.642858	3.50832	0.890009	2.27785	0.310146	6.19515	0.511034	3.81194	0.757879	2.58781
0.295908	4.97212	0.0765402	2.26687	0.379165	4.48118	0.584749	3.48682	0.646154	3.56632	0.892151	2.31982	0.315925	6.20864	0.513685	3.84986	0.760311	2.63294
0.30048	4.84218	0.0786518	2.26599	0.383379	4.56356	0.588043	3.58522	0.649504	3.62409	0.894332	2.36142	0.321715	6.21981	0.515898	3.88082	0.762785	2.67758
0.304931	4.71106	0.0807626	2.26504	0.387669	4.64657	0.591429	3.6827	0.652907	3.68178	0.896551	2.40265	0.327515	6.2288	0.517659	3.90493	0.7653	2.72166
0.309259	4.57942	0.0828725	2.26409	0.392037	4.73018	0.594906	3.77901	0.656364	3.73944	0.898809	2.44351	0.333322	6.23575	0.518962	3.92244	0.767856	2.76521
0.313464	4.44789	0.0849815	2.26317	0.396483	4.81418	0.598471	3.87399	0.659875	3.79712	0.901105	2.48399	0.339134	6.24066	0.519798	3.9336	0.770453	2.80823
0.317547	4.31704	0.0870896	2.26224	0.401008	4.89811	0.602124	3.96741	0.66344	3.85483	0.903438	2.52409	0.34495	6.24358	0.521005	3.94954	0.773089	2.85076
0.321509	4.18747	0.0891969	2.26129	0.40561	4.98179	0.605864	4.05911	0.667058	3.91268	0.905808	2.56386	0.350768	6.24461	0.522322	3.96674	0.775765	2.89276
0.32535	4.05973	0.0913033	2.26038	0.410291	5.06482	0.609192	4.13751	0.670731	3.97075	0.908215	2.60325	0.356586	6.2438	0.524122	3.98989	0.77848	2.9342
0.329073	3.93425	0.0934089	2.25949	0.415048	5.14674	0.612078	4.20303	0.674457	4.02909	0.910659	2.64219	0.362403	6.24116	0.526414	4.01874	0.781232	2.97512
0.332681	3.81153	0.0955136	2.2586	0.419881	5.22724	0.614499	4.25628	0.678238	4.08777	0.913139	2.68082	0.368216	6.23673	0.529207	4.05316	0.784023	3.01556
0.336176	3.69193	0.0976175	2.25779	0.424788	5.30587	0.616435	4.29779	0.682074	4.14683	0.915654	2.7191	0.374025	6.2306	0.532514	4.09285	0.786852	3.05552
0.339561	3.57577	0.0997208	2.25698	0.429768	5.38225	0.61787	4.32795	0.685966	4.20642	0.918205	2.75693	0.379826	6.22277	0.536349	4.13754	0.789717	3.09492
0.342839	3.46327	0.101823	2.25614	0.434818	5.45607	0.618793	4.34712	0.689913	4.26658	0.920792	2.79443	0.38562	6.21322	0.540224	4.1813	0.792619	3.13382
0.346014	3.35466	0.103925	2.25539	0.439935	5.527	0.620128	4.3743	0.693398	4.31952	0.923412	2.83156	0.391404	6.20203	0.54414	4.22413	0.795556	3.17219
0.34909	3.25009	0.106026	2.25465	0.445117	5.5947	0.621589	4.40346	0.696403	4.36505	0.926068	2.86824	0.397177	6.18923	0.548096	4.26617	0.79853	3.21014
0.35207	3.14956	0.108126	2.25391	0.45036	5.65897	0.623591	4.4427	0.698912	4.403	0.928757	2.90463	0.402937	6.17477	0.55209	4.3074	0.801538	3.24757
0.354959	3.05316	0.110226	2.25321	0.455661	5.71971	0.626147	4.49129	0.700912	4.43313	0.93148	2.94063	0.408683	6.15871	0.556122	4.34786	0.804581	3.28449
0.357759	2.96093	0.112325	2.25253	0.461018	5.77671	0.629276	4.54864	0.702391	4.45551	0.934237	2.97623	0.414413	6.14105	0.560191	4.38765	0.807658	3.32098
0.360476	2.87278	0.114423	2.2519	0.466426	5.82996	0.632996	4.61384	0.703341	4.46995	0.937026	3.01146	0.420126	6.12182	0.564298	4.42673	0.81077	3.35697
0.363113	2.78869	0.116521	2.25129	0.471881	5.8794	0.637329	4.68575	0.704712	4.49074	0.939848	3.04633	0.42582	6.101	0.56844	4.46521	0.813914	3.39248
0.365673	2.70856	0.118618	2.25069	0.477381	5.92507	0.641727	4.75444	0.706211	4.51343	0.942703	3.08085	0.431494	6.07861	0.572618	4.50309	0.817091	3.42753
0.36816	2.63229	0.120715	2.2501	0.482922	5.96698	0.646188	4.81985	0.70826	4.54445	0.945589	3.11495	0.437147	6.05468	0.576831	4.54041	0.820301	3.46212
0.370577	2.55981	0.122811	2.24955	0.4885	6.00519	0.650709	4.88173	0.710872	4.58398	0.948507	3.14872	0.442777	6.02916	0.581079	4.57723	0.823542	3.49629
0.37293	2.49089	0.124907	2.24906	0.494112	6.03985	0.655285	4.94003	0.714061	4.63235	0.951456	3.18212	0.448382	6.00212	0.58536	4.61359	0.826393	3.52571
0.375219	2.42547	0.127002	2.24855	0.499755	6.07107	0.659914	4.99467	0.717846	4.68991	0.954437	3.21518	0.453961	5.97358	0.589676	4.64953	0.828842	3.55055
0.377449	2.36348	0.129097	2.24801	0.505425	6.09898	0.664592	5.04557	0.722246	4.7569	0.957447	3.24788	0.459513	5.94346	0.594024	4.68504	0.83088	3.57082
0.379623	2.3047	0.131191	2.24755	0.511119	6.12366	0.669316	5.09271	0.72671	4.82497	0.960489	3.28018	0.465036	5.91184	0.598406	4.72019	0.832499	3.58682
0.381744	2.24894	0.133285	2.24714	0.516836	6.14527	0.674082	5.13605	0.731237	4.89419	0.96356	3.31213	0.470529	5.87871	0.60282	4.75502	0.833695	3.59862
0.383814	2.19617	0.135378	2.24668	0.522571	6.16402	0.678886	5.17563	0.735829	4.96462	0.96666	3.34378	0.47599	5.84409	0.607266	4.78946	0.834462	3.60599
0.385836	2.14628	0.137471	2.24623	0.528322	6.18006	0.683726	5.21134	0.740488	5.03616	0.96979	3.37509	0.481419	5.80803	0.611744	4.82367	0.835567	3.61656
0.387813	2.09903	0.139564	2.24585	0.534086	6.19347	0.688597	5.24334	0.745214	5.10877	0.97295	3.40599	0.486813	5.77052	0.616255	4.85759	0.836773	3.62815
0.389747	2.05426	0.141656	2.24549	0.539862	6.20438	0.693496	5.27168	0.750008	5.18251	0.976137	3.43659	0.492172	5.73155	0.620796	4.89121	0.838418	3.64373
0.3914	2.01721	0.143748	2.24508	0.545648	6.21299	0.69842	5.29643	0.754871	5.2572	0.979353	3.46688	0.497493	5.69119	0.625369	4.92464	0.840509	3.66327
0.392785	1.98704	0.145839	2.24473	0.55144	6.21941	0.703365	5.31778	0.759804	5.33278	0.982597	3.49685	0.502776	5.64952	0.629973	4.9578	0.843053	3.68675
0.393916	1.96314	0.147931	2.24441	0.557237	6.22372	0.708329	5.33578	0.764808	5.4091	0.985447	3.52264	0.50802	5.60645	0.634607	4.99068	0.846057	3.71406
0.3948	1.94472	0.150022	2.24407	0.563037	6.22606	0.713308	5.35067	0.769883	5.48604	0.987893	3.54449	0.513223	5.5621	0.639272	5.02334	0.849532	3.74494
0.395445	1.93143	0.152112	2.24375	0.568838	6.22657	0.7183	5.36266	0.775031	5.56347	0.989926	3.5624	0.518385	5.51649	0.643968	5.05578	0.853035	3.77547
0.395855	1.92318	0.154203	2.24344	0.574639	6.22533	0.723301	5.37192	0.78025	5.64108	0.991542	3.57652	0.523503	5.4697	0.648693	5.08794	0.856567	3.8056
0.396442	1.91148	0.156293	2.24315	0.580439	6.22243	0.728309	5.37874	0.785542	5.71881	0.992734	3.58692	0.528577	5.4218	0.653448	5.1198	0.860127	3.83539
0.397076	1.89899	0.158382	2.24285	0.586234	6.21798	0.733323	5.38336	0.790906	5.79643	0.993498	3.59345	0.533606	5.37273	0.658233	5.1514	0.863714	3.86482
0.397931	1.88248	0.160472	2.24255	0.592025	6.21206	0.738341	5.38607	0.796343	5.87361	0.9946	3.60279	0.538588	5.32263	0.663047	5.18266	0.867328	3.89382
0.399003	1.86214	0.162561	2.24233	0.59781	6.20467	0.74336	5.38714	0.801851	5.95025	0.9958	3.61303	0.543524	5.27158	0.667891	5.21356	0.87097	3.92249
0.400283	1.83861	0.16465	2.24208	0.603587	6.19595	0.748379	5.38675	0.807431	6.02615	0.997438	3.62688	0.548411	5.21962	0.672762	5.24409	0.874638	3.95086
0.401765	1.81224	0.166739	2.2418	0.609355	6.18599	0.753397	5.38524	0.81308	6.10101	0.999519	3.64425	0.55325	5.16683	0.677662	5.27423	0.878332	3.97888
0.40344	1.78347	0.168828	2.24159	0.615114	6.17479	0.758414	5.38291	0.818799	6.17466	1.00205	3.65471	0.558039	5.11323	0.68259	5.30395	0.882052	4.00652
0.405089	1.75638	0.170916	2.24138	0.620861	6.16245	0.763428	5.37992	0.824586	6.247			0.562778	5.05896	0.687546	5.33312	0.885797	4.03381
0.406713	1.73086	0.173004	2.24112	0.626597	6.14899	0.768439	5.37652	0.83044	6.31782			0.567466	5.00406	0.692528	5.36178	0.889568	4.06082
0.408314	1.70674	0.175092	2.24092	0.632319	6.13442	0.773446	5.37291	0.836359	6.38696			0.572102	4.94864	0.697537	5.38991	0.893364	4.08755
0.409893	1.68407	0.17718	2.24075	0.638028	6.11883	0.778451	5.36924	0.842341	6.4543			0.576687	4.89273	0.702571	5.41745	0.897185	4.11395
0.411452	1.66277	0.179268	2.24052	0.643721	6.10228	0.783451	5.36576	0.848386	6.51976			0.58122	4.83643	0.707632	5.44429	0.90103	4.14
0.412991	1.64267	0.181355	2.24033	0.649399	6.08477	0.788449	5.36255	0.85449	6.58329			0.585699	4.77986	0.712716	5.47046	0.9049	4.16574
0.414513	1.62376	0.183442	2.24016	0.655059	6.06632	0.793444	5.3597	0.860653	6.64479			0.590126	4.72298	0.717825	5.49592	0.908793	4.19124
0.416017	1.60603	0.185529	2.23996	0.660702	6.04698	0.798436	5.35736	0.866872	6.70418			0.5945	4.66597	0.722957	5.52059	0.912709	4.21644
0.417505	1.58936	0.187616	2.23976	0.666327	6.0268	0.803427	5.35564	0.873145	6.76148			0.598821	4.6089	0.728112	5.54442	0.91665	4.24131
0.418979	1.5737	0.189703	2.23962	0.671933	6.00577	0.808416	5.35449	0.879471	6.81676			0.603088	4.55177	0.733289	5.56744	0.920613	4.26594
0.420438	1.55906	0.191789	2.23947	0.677518	5.98393	0.813404	5.35399	0.885848	6.86989			0.607303	4.49467	0.738486	5.5896	0.924599	4.29034
0.421884	1.5453	0.193876	2.23929	0.683083	5.96129	0.818393	5.35421	0.892272	6.92091			0.611464	4.43774	0.743704	5.61083	0.928607	4.31441
0.423317	1.53241	0.195962	2.23913	0.688626	5.93789	0.823381	5.35513	0.898744	6.9699			0.615572	4.38097	0.748942	5.63111	0.932638	4.33819
0.424739	1.5204	0.198048	2.23897	0.694148	5.91374	0.828371	5.3568	0.90526	7.01684			0.619627	4.32442	0.754197	5.65044	0.936691	4.36177
0.42615	1.50912	0.200134	2.23886	0.699646	5.88888	0.833363	5.35917	0.911819	7.06181			0.62363	4.26817	0.759471	5.66879	0.940766	4.38506
0.427551	1.49861	0.20222	2.23873	0.705121	5.86327	0.838358	5.36222	0.918419	7.10484			0.62758	4.21221	0.76476	5.68612	0.944862	4.40813
0.428943	1.48881	0.204306	2.23859	0.710572	5.83699	0.843355	5.36595	0.925058	7.14594			0.631479	4.15669	0.770066	5.70241	0.94898	4.43094
0.430326	1.4797	0.206391	2.23845	0.715998	5.81007	0.848356	5.37034	0.931735	7.18514			0.635326	4.10161	0.775386	5.71766	0.953119	4.45344
0.4317	1.47123	0.208477	2.2383	0.721398	5.78245	0.853362	5.37535	0.938447	7.22253			0.639122	4.04701	0.78072	5.73187	0.957278	4.47579
0.433067	1.46333	0.210562	2.23819	0.726773	5.7542	0.858373	5.38093	0.945193	7.25815			0.642867	3.9929	0.786067	5.74502	0.961459	4.49788
0.434427	1.45605	0.212647	2.23807	0.73212	5.72536	0.863389	5.38709	0.951972	7.29203			0.646562	3.9393	0.791426	5.75713	0.96566	4.51969
0.43578	1.44933	0.214733	2.23793	0.737441	5.69593	0.868411	5.39376	0.958781	7.32421			0.650207	3.88635	0.796795	5.76813	0.969881	4.54136
0.437128	1.44312	0.216818	2.23782	0.742734	5.6659	0.87344	5.40094	0.965619	7.35465			0.653804	3.83398	0.802174	5.77809	0.974122	4.56274
0.438469	1.43741	0.218902	2.23774	0.747999	5.63532	0.878475	5.4086	0.972486	7.3835			0.657352	3.7822	0.807562	5.78703	0.978383	4.58391
0.439806	1.43218	0.220987	2.23765	0.753235	5.60421	0.883518	5.4166	0.979378	7.41074			0.660852	3.73112	0.812957	5.79483	0.982664	4.60485
0.441138	1.42736	0.223072	2.2375	0.758442	5.57262	0.888568	5.42496	0.986295	7.43637			0.664304	3.68071	0.81836	5.80163	0.986964	4.62558
0.442466	1.42298	0.225157	2.23739	0.763619	5.54049	0.893627	5.43368	0.993235	7.46043			0.66771	3.63101	0.823768	5.80737	0.991283	4.64613
0.44379	1.41903	0.227241	2.23734	0.768766	5.50787	0.898693	5.44265	1.0002	7.47206			0.67107	3.58198	0.829181	5.81207	0.995621	4.66647
0.44511	1.41544	0.229326	2.23723	0.773882	5.47486	0.903768	5.4519					0.674385	3.53363	0.834598	5.81577	0.999978	4.68656
0.446427	1.41222	0.23141	2.23711	0.778968	5.4414	0.908852	5.4614					0.677655	3.48606	0.840018	5.8184	1.00435	4.69651
0.447742	1.4094	0.233494	2.23701	0.784022	5.4075	0.913945	5.47102					0.680881	3.4392	0.84544	5.82007		
0.449053	1.40685	0.235579	2.23696	0.789044	5.37322	0.919047	5.48073					0.684063	3.39306	0.850863	5.82076		
0.450363	1.40463	0.237663	2.23687	0.794034	5.33862	0.924158	5.49057					0.687203	3.34773	0.856286	5.82045		
0.451671	1.40275	0.239747	2.23678	0.798992	5.30366	0.929278	5.50051					0.690301	3.30313	0.861709	5.8192		
0.452977	1.40111	0.241831	2.2367	0.803917	5.26843	0.934408	5.51046					0.693358	3.25929	0.86713	5.81703		
0.454282	1.39974	0.243915	2.23659	0.808809	5.23286	0.939546	5.52037					0.696375	3.21617	0.872548	5.81393		
0.455585	1.39866	0.245998	2.23653	0.813668	5.19703	0.944694	5.53024					0.699351	3.17381	0.877963	5.80989		
0.456888	1.39782	0.248082	2.23647	0.818493	5.16102	0.949851	5.54001					0.702289	3.13223	0.883374	5.80498		
0.45819	1.39722	0.250166	2.2364	0.823285	5.12474	0.955017	5.54969					0.705188	3.09134	0.88878	5.79919		
0.459491	1.39681	0.252249	2.23633	0.828042	5.08825	0.960192	5.55925					0.708049	3.05126	0.894181	5.79256		
0.460793	1.3966	0.254333	2.23622	0.832766	5.05163	0.965376	5.56861					0.710874	3.01196	0.899574	5.78511		
0.462094	1.39665	0.256416	2.23616	0.837456	5.01489	0.970569	5.57776					0.713662	2.9733	0.904961	5.77684		
0.463395	1.39689	0.2585	2.2361	0.842111	4.978	0.97577	5.58669					0.716414	2.93544	0.910339	5.76773		
0.464697	1.39727	0.260583	2.23603	0.846732	4.94098	0.980979	5.59541					0.719131	2.89831	0.915708	5.75786		
