Sym0		Asym0		Sym1		Sym2		Sym3		Asym1		Asym2		Asym3	
457  Points		491  Points		167  Points		131  Points		109  Points		307  Points		143  Points		114  Points	
Freq (MHz)	Vph (m/ms)	Freq (MHz)	Vph (m/ms)	Freq (MHz)	Vph (m/ms)	Freq (MHz)	Vph (m/ms)	Freq (MHz)	Vph (m/ms)	Freq (MHz)	Vph (m/ms)	Freq (MHz)	Vph (m/ms)	Freq (MHz)	Vph (m/ms)
0.00583122	7.9226	0.000566373	0.254134	0.279514	1159.61	0.536263	722.855	0.559058	705.208	0.139799	320.638	0.419303	530.245	0.698787	1093.33
0.0132115	7.92187	0.00112965	0.357445	0.279633	238.445	0.536314	320.463	0.55921	324.283	0.14019	102.501	0.419454	243.519	0.698865	444.902
0.0205887	7.92053	0.0018737	0.45789	0.27991	133.01	0.536406	205.894	0.559474	210.634	0.140981	61.3122	0.419717	158.135	0.699008	279.321
0.0279615	7.9186	0.00278729	0.554826	0.280343	92.3358	0.53654	151.695	0.559848	156.04	0.142163	43.9986	0.420091	117.152	0.699218	203.603
0.035328	7.91609	0.00385762	0.647749	0.280932	70.8026	0.536716	120.107	0.560333	123.98	0.143725	34.5263	0.420576	93.0981	0.699492	160.217
0.0426865	7.91297	0.00507082	0.736276	0.281675	57.4905	0.536937	99.4265	0.560925	102.899	0.145652	28.5901	0.421171	77.2898	0.699833	132.104
0.0500354	7.90925	0.00641282	0.820178	0.282572	48.4585	0.537205	84.8392	0.561624	87.9884	0.147925	24.5471	0.421877	66.1152	0.700239	112.41
0.0573731	7.90492	0.00786952	0.899321	0.283619	41.9374	0.537522	74.0008	0.562427	76.8907	0.150526	21.634	0.422693	57.803	0.70071	97.8508
0.0646974	7.89997	0.00942747	0.97369	0.284815	37.0149	0.53789	65.633	0.563331	68.3131	0.153435	19.4479	0.423616	51.3828	0.701246	86.6517
0.0720068	7.89438	0.011074	1.04334	0.286158	33.1727	0.538313	58.9795	0.564336	61.4879	0.156632	17.7562	0.424648	46.278	0.701846	77.7722
0.0792994	7.88815	0.0127972	1.10841	0.287644	30.0946	0.538793	53.5642	0.565439	55.9303	0.160097	16.4152	0.425787	42.1249	0.702512	70.5611
0.086573	7.88126	0.0145866	1.16905	0.289272	27.5768	0.539332	49.0725	0.566638	51.3194	0.163809	15.3312	0.427031	38.6824	0.703242	64.59
0.0938258	7.87369	0.0164327	1.2255	0.291037	25.4818	0.539932	45.288	0.56793	47.4338	0.16775	14.4409	0.428381	35.7845	0.704036	59.5658
0.101056	7.86544	0.0183269	1.27797	0.292938	23.7137	0.540598	42.0571	0.569314	44.1165	0.171902	13.6995	0.429833	33.3132	0.704894	55.2808
0.10826	7.85647	0.0202619	1.3267	0.29497	22.2036	0.541331	39.2678	0.570788	41.2524	0.176249	13.0751	0.431388	31.1821	0.705816	51.584
0.115437	7.84678	0.0222312	1.37195	0.29713	20.9004	0.542133	36.8364	0.57235	38.7556	0.180773	12.5438	0.433044	29.3267	0.706802	48.3628
0.122585	7.83633	0.0242293	1.41396	0.299415	19.7658	0.543007	34.6992	0.573998	36.5607	0.185462	12.0876	0.4348	27.698	0.70785	45.5319
0.1297	7.82511	0.0262512	1.45296	0.301822	18.7702	0.543956	32.8066	0.575732	34.6168	0.189671	11.7407	0.436653	26.2576	0.708961	43.0248
0.13678	7.81308	0.0280295	1.48466	0.304347	17.8906	0.544981	31.1197	0.577549	32.8839	0.193342	11.4763	0.438604	24.9756	0.710134	40.7897
0.143822	7.80022	0.0295556	1.51013	0.306986	17.1087	0.546085	29.6076	0.579449	31.3301	0.196433	11.2766	0.440649	23.8279	0.711369	38.785
0.150824	7.7865	0.0308236	1.53018	0.309736	16.4099	0.54727	28.2451	0.581429	29.9294	0.19891	11.1297	0.442788	22.7951	0.712666	36.9774
0.157782	7.77189	0.0318296	1.5454	0.312595	15.7823	0.548538	27.0116	0.583489	28.6609	0.200749	11.0273	0.445018	21.8614	0.714024	35.3395
0.164693	7.75635	0.0325711	1.55626	0.315558	15.2162	0.549891	25.8904	0.585629	27.5072	0.201934	10.9641	0.447339	21.0136	0.715443	33.8488
0.171554	7.73985	0.0330463	1.56306	0.318623	14.7034	0.55133	24.8674	0.587846	26.4536	0.203647	10.8764	0.449748	20.2409	0.716922	32.4868
0.178361	7.72235	0.0337305	1.57265	0.321788	14.2373	0.552859	23.9307	0.59014	25.4882	0.205523	10.7849	0.452244	19.5342	0.718461	31.2377
0.18511	7.70381	0.0344752	1.58282	0.325048	13.8122	0.554478	23.0703	0.592511	24.6007	0.208095	10.6666	0.454826	18.8856	0.720059	30.0883
0.191798	7.68419	0.0354899	1.59624	0.328403	13.4233	0.55619	22.2779	0.594956	23.7823	0.211383	10.5263	0.45749	18.2887	0.721716	29.0275
0.19842	7.66345	0.0367758	1.61256	0.331851	13.0666	0.557995	21.5462	0.597477	23.0255	0.215407	10.3693	0.460236	17.7378	0.723431	28.0455
0.204973	7.64154	0.0383343	1.63139	0.335388	12.7386	0.559895	20.8688	0.600072	22.3239	0.22019	10.2008	0.463061	17.2281	0.725204	27.1342
0.211451	7.61842	0.0401664	1.65227	0.339015	12.4362	0.561893	20.2403	0.602741	21.672	0.225756	10.0259	0.465965	16.7554	0.727035	26.2863
0.21785	7.59405	0.0422733	1.67475	0.342729	12.157	0.563988	19.6561	0.605483	21.0649	0.231397	9.86816	0.468945	16.3159	0.728922	25.4957
0.224165	7.56839	0.0443836	1.69577	0.346036	11.9307	0.566182	19.112	0.608297	20.4984	0.237108	9.72528	0.472	15.9065	0.730866	24.7569
0.230392	7.54139	0.0464966	1.71543	0.348907	11.7493	0.568477	18.6044	0.611184	19.9688	0.242881	9.5954	0.475127	15.5245	0.732865	24.0652
0.236525	7.51302	0.0486115	1.73386	0.351316	11.6068	0.570872	18.13	0.614143	19.4727	0.248712	9.47691	0.478325	15.1672	0.73492	23.4162
0.242559	7.48323	0.0507277	1.75115	0.353244	11.4985	0.57337	17.686	0.617174	19.0073	0.254594	9.36846	0.481593	14.8327	0.737029	22.8064
0.24849	7.45201	0.0528447	1.76738	0.354675	11.4214	0.575969	17.2698	0.620277	18.57	0.260523	9.26885	0.484928	14.5188	0.739192	22.2324
0.254312	7.41931	0.0549621	1.78265	0.355596	11.3731	0.578672	16.8793	0.623451	18.1585	0.266494	9.17709	0.488329	14.2238	0.741409	21.6912
0.260021	7.38513	0.0570796	1.79703	0.356929	11.305	0.581476	16.5124	0.626697	17.7708	0.272503	9.09229	0.491795	13.9463	0.743679	21.1803
0.265612	7.34945	0.0591968	1.81057	0.358387	11.2328	0.584384	16.1672	0.630014	17.4051	0.278545	9.0137	0.495324	13.6848	0.746	20.6972
0.271081	7.31227	0.0613137	1.82336	0.360388	11.1376	0.587393	15.8421	0.633403	17.0596	0.284618	8.94065	0.498914	13.4381	0.748374	20.2399
0.276425	7.2736	0.06343	1.83544	0.362948	11.0217	0.590504	15.5356	0.636864	16.7329	0.290717	8.87256	0.502564	13.205	0.750798	19.8064
0.281638	7.23345	0.0655455	1.84687	0.366087	10.8882	0.593716	15.2464	0.640398	16.4237	0.296839	8.80892	0.506272	12.9846	0.753273	19.395
0.28672	7.19186	0.0676604	1.85769	0.36983	10.7402	0.597027	14.9732	0.644004	16.1308	0.302981	8.74928	0.510037	12.7758	0.755798	19.0041
0.291666	7.14887	0.0697743	1.86794	0.374205	10.581	0.600437	14.7149	0.647683	15.853	0.309139	8.69324	0.513857	12.578	0.758373	18.6323
0.296476	7.10453	0.0718873	1.87768	0.378668	10.4323	0.603943	14.4704	0.651435	15.5893	0.315312	8.64044	0.517731	12.3903	0.760995	18.2783
0.301149	7.0589	0.0739993	1.88692	0.383218	10.2935	0.607543	14.2388	0.655262	15.3389	0.321496	8.59057	0.521151	12.2344	0.763666	17.941
0.305684	7.01206	0.0761105	1.89572	0.387856	10.1637	0.611237	14.0192	0.659164	15.1009	0.327689	8.54335	0.524097	12.1068	0.766385	17.6192
0.310081	6.96409	0.0782206	1.90409	0.392581	10.0423	0.61502	13.8109	0.663141	14.8745	0.333887	8.49852	0.526554	12.0049	0.76915	17.312
0.314341	6.91507	0.0803297	1.91207	0.397394	9.92879	0.618891	13.613	0.667196	14.6591	0.340089	8.45586	0.52851	11.9264	0.771961	17.0184
0.318467	6.86512	0.082438	1.91967	0.402294	9.82256	0.622845	13.4249	0.671327	14.454	0.346293	8.41516	0.529956	11.8699	0.774818	16.7376
0.322459	6.81432	0.0845452	1.92694	0.40728	9.72312	0.626882	13.2459	0.675538	14.2586	0.352495	8.37623	0.530885	11.8343	0.77772	16.4688
0.326321	6.76279	0.0866516	1.93388	0.412351	9.62998	0.630995	13.0754	0.679828	14.0724	0.358694	8.33892	0.532224	11.7837	0.780667	16.2113
0.330056	6.71062	0.088757	1.94052	0.417505	9.5427	0.635184	12.9129	0.684199	13.8949	0.364888	8.30307	0.533686	11.7297	0.783657	15.9646
0.333668	6.65792	0.0908616	1.94687	0.42274	9.46089	0.639442	12.7578	0.688652	13.7257	0.371075	8.26855	0.535684	11.6576	0.78669	15.7278
0.337159	6.6048	0.0929653	1.95296	0.428053	9.38413	0.643768	12.6097	0.693189	13.5642	0.377252	8.23522	0.538227	11.5689	0.789767	15.5006
0.340535	6.55136	0.0950682	1.9588	0.433443	9.31208	0.647588	12.486	0.69781	13.4101	0.383417	8.20297	0.541326	11.4649	0.792885	15.2824
0.343799	6.49769	0.0971703	1.9644	0.438904	9.24438	0.65088	12.3842	0.702517	13.2631	0.389569	8.1717	0.544993	11.3475	0.796044	15.0726
0.346955	6.44388	0.0992717	1.96978	0.444435	9.18071	0.653626	12.3025	0.707311	13.1228	0.395705	8.14131	0.549245	11.2184	0.799245	14.8708
0.350009	6.39002	0.101372	1.97495	0.450031	9.12076	0.655812	12.2393	0.712193	12.9889	0.401824	8.11171	0.55354	11.095	0.802485	14.6767
0.352965	6.3362	0.103472	1.97992	0.455688	9.06426	0.657427	12.1938	0.717163	12.861	0.407924	8.08282	0.557879	10.977	0.805766	14.4898
0.355826	6.28249	0.105571	1.98471	0.461403	9.01094	0.658463	12.1649	0.722224	12.7389	0.414003	8.05457	0.562262	10.864	0.809086	14.3098
0.358598	6.22896	0.10767	1.98932	0.46717	8.96053	0.659958	12.124	0.726708	12.637	0.420058	8.02688	0.566686	10.7559	0.812444	14.1362
0.361284	6.17567	0.109768	1.99376	0.472987	8.91283	0.661589	12.0801	0.730584	12.5533	0.426089	7.9997	0.571151	10.6523	0.81584	13.9689
0.363888	6.12269	0.111865	1.99804	0.478849	8.8676	0.663817	12.0214	0.733828	12.4863	0.432093	7.97296	0.575657	10.5529	0.819274	13.8074
0.366416	6.07005	0.113962	2.00218	0.484752	8.82465	0.666649	11.9489	0.736418	12.4346	0.438068	7.9466	0.580203	10.4576	0.822745	13.6515
0.36887	6.01783	0.116058	2.00617	0.490691	8.7838	0.670095	11.8635	0.738335	12.3973	0.444014	7.92059	0.584789	10.3662	0.826253	13.501
0.371254	5.96604	0.118154	2.01002	0.496664	8.74487	0.674165	11.7664	0.739569	12.3738	0.449927	7.89486	0.589414	10.2784	0.829796	13.3556
0.373572	5.91474	0.120249	2.01375	0.502667	8.70771	0.678869	11.6589	0.74135	12.3404	0.455806	7.86937	0.594077	10.1941	0.833375	13.215
0.375828	5.86395	0.122344	2.01735	0.508695	8.67218	0.683606	11.5554	0.743298	12.3046	0.46165	7.84409	0.598778	10.1131	0.836989	13.0791
0.378024	5.8137	0.124438	2.02084	0.514746	8.63813	0.688373	11.4555	0.745965	12.257	0.467457	7.81897	0.603517	10.0352	0.840166	12.9643
0.380165	5.76403	0.126532	2.02421	0.520817	8.60546	0.693166	11.3592	0.74937	12.1982	0.473225	7.79398	0.608293	9.96036	0.842895	12.8689
0.382252	5.71494	0.128626	2.02748	0.526904	8.57404	0.697982	11.2661	0.753532	12.1293	0.478952	7.76909	0.613106	9.88831	0.845165	12.7918
0.384289	5.66646	0.130719	2.03065	0.533005	8.54378	0.70282	11.1761	0.758479	12.0514	0.484637	7.74426	0.617955	9.81897	0.84697	12.7319
0.386278	5.61861	0.132811	2.03372	0.539116	8.51458	0.707676	11.089	0.76424	11.9658	0.490278	7.71948	0.622841	9.75222	0.848301	12.6885
0.388222	5.57139	0.134903	2.03671	0.545236	8.48636	0.712549	11.0047	0.77009	11.8841	0.495873	7.69471	0.627762	9.68795	0.849156	12.6609
0.390125	5.52481	0.136995	2.0396	0.551361	8.45903	0.717437	10.923	0.776027	11.8059	0.501422	7.66993	0.632718	9.62603	0.850387	12.6217
0.391987	5.47889	0.139087	2.04241	0.55749	8.43252	0.722338	10.8439	0.782051	11.7313	0.506923	7.64511	0.63771	9.56637	0.851729	12.5795
0.393578	5.43941	0.141178	2.04513	0.56362	8.40678	0.727252	10.767	0.788159	11.66	0.512374	7.62025	0.642736	9.50887	0.853562	12.5228
0.394913	5.40615	0.143269	2.04779	0.56975	8.38173	0.732178	10.6925	0.794351	11.5918	0.517775	7.59532	0.647796	9.45343	0.85589	12.4524
0.396003	5.37893	0.14536	2.05036	0.575877	8.35732	0.737114	10.6201	0.800623	11.5266	0.523123	7.57031	0.65289	9.39996	0.858722	12.3691
0.396856	5.35758	0.14745	2.05287	0.582	8.3335	0.742061	10.5497	0.806974	11.4643	0.528418	7.5452	0.658018	9.34839	0.862066	12.2737
0.397478	5.34198	0.14954	2.05531	0.588117	8.31022	0.747017	10.4813	0.813401	11.4046	0.533658	7.51998	0.663179	9.29862	0.865933	12.1674
0.397874	5.33204	0.15163	2.05768	0.594226	8.28743	0.751982	10.4149	0.819904	11.3476	0.538843	7.49465	0.668372	9.25059	0.869831	12.0642
0.398441	5.31782	0.153719	2.05999	0.600326	8.26511	0.756957	10.3502	0.826478	11.2929	0.543972	7.46919	0.673597	9.20422	0.873759	11.9641
0.399052	5.30244	0.155808	2.06224	0.606415	8.2432	0.761941	10.2873	0.833122	11.2406	0.549043	7.4436	0.678853	9.15943	0.877717	11.8669
0.399879	5.28165	0.157897	2.06443	0.612492	8.22168	0.766934	10.2261	0.839833	11.1905	0.554056	7.41787	0.68414	9.11617	0.881705	11.7725
0.400914	5.2556	0.159986	2.06657	0.618555	8.20052	0.771937	10.1665	0.846609	11.1424	0.559011	7.392	0.689457	9.07436	0.885722	11.6808
0.402151	5.22442	0.162075	2.06865	0.624604	8.17967	0.77695	10.1085	0.853448	11.0964	0.563906	7.36598	0.694803	9.03395	0.889768	11.5918
0.403584	5.18831	0.164163	2.07068	0.630637	8.15912	0.781972	10.052	0.860347	11.0522	0.568742	7.33982	0.700178	8.99487	0.893842	11.5052
0.405204	5.14748	0.166251	2.07266	0.636652	8.13885	0.787005	9.99692	0.867304	11.0098	0.573518	7.31352	0.705581	8.95706	0.897945	11.421
0.4068	5.10731	0.168339	2.07459	0.64265	8.11881	0.792048	9.9433	0.874316	10.9691	0.578233	7.28707	0.71101	8.92048	0.902075	11.3392
0.408374	5.06779	0.170427	2.07648	0.648628	8.09901	0.797102	9.89106	0.881381	10.93	0.582888	7.26048	0.716465	8.88507	0.906233	11.2596
0.409926	5.02891	0.172515	2.07832	0.654585	8.0794	0.802167	9.84014	0.888498	10.8924	0.587481	7.23375	0.721946	8.85077	0.910417	11.1821
0.411458	4.99066	0.174602	2.08012	0.660521	8.05998	0.807243	9.79051	0.895662	10.8562	0.592015	7.20689	0.72745	8.81753	0.914628	11.1068
0.412972	4.95304	0.176689	2.08188	0.666435	8.04073	0.812331	9.74214	0.902874	10.8214	0.596487	7.1799	0.732978	8.78532	0.918866	11.0334
0.414467	4.91605	0.178776	2.0836	0.672325	8.02163	0.81743	9.69497	0.910129	10.7879	0.600899	7.15279	0.738527	8.75407	0.923129	10.9619
0.415946	4.87966	0.180863	2.08528	0.678191	8.00265	0.822543	9.64898	0.917427	10.7556	0.60525	7.12556	0.744097	8.72375	0.927418	10.8924
0.417409	4.84388	0.18295	2.08692	0.684032	7.9838	0.827667	9.60413	0.924765	10.7245	0.609541	7.09822	0.749687	8.69432	0.931732	10.8246
0.418858	4.8087	0.185037	2.08853	0.689846	7.96505	0.832805	9.56038	0.93214	10.6945	0.613773	7.07078	0.755295	8.66572	0.936071	10.7585
0.420293	4.77411	0.187123	2.0901	0.695634	7.94639	0.837955	9.51771	0.939552	10.6655	0.617945	7.04324	0.760921	8.63793	0.940434	10.6942
0.421715	4.7401	0.189209	2.09163	0.701394	7.92782	0.843119	9.47608	0.946997	10.6375	0.622057	7.01562	0.766562	8.6109	0.944822	10.6314
0.423125	4.70666	0.191296	2.09314	0.707126	7.90931	0.848297	9.43547	0.954474	10.6105	0.626112	6.98792	0.772219	8.5846	0.949234	10.5703
0.424523	4.67377	0.193382	2.09461	0.712828	7.89085	0.853488	9.39584	0.961981	10.5843	0.630108	6.96015	0.77789	8.55899	0.95367	10.5106
0.425912	4.64145	0.195468	2.09605	0.7185	7.87245	0.858693	9.35716	0.969515	10.5589	0.634048	6.93232	0.783573	8.53404	0.958129	10.4524
0.42729	4.60967	0.197553	2.09746	0.724141	7.85408	0.863912	9.31942	0.977074	10.5344	0.63793	6.90443	0.789267	8.50971	0.962611	10.3957
0.428659	4.57842	0.199639	2.09884	0.729751	7.83574	0.869144	9.28257	0.984657	10.5105	0.641756	6.8765	0.794972	8.48597	0.967116	10.3403
0.43002	4.5477	0.201725	2.1002	0.735329	7.81743	0.874392	9.2466	0.992261	10.4874	0.645527	6.84854	0.800685	8.46279	0.971644	10.2862
0.431373	4.51749	0.20381	2.10153	0.740873	7.79913	0.879653	9.21148	0.999883	10.4649	0.649244	6.82055	0.806406	8.44014	0.976193	10.2334
0.432718	4.4878	0.205896	2.10283	0.746385	7.78083	0.884928	9.17719	1.00752	10.443	0.652906	6.79254	0.812134	8.418	0.980765	10.1819
0.434057	4.4586	0.207981	2.1041	0.751862	7.76254	0.890218	9.1437			0.656515	6.76452	0.817866	8.39633	0.985359	10.1316
0.435389	4.42989	0.210066	2.10535	0.757305	7.74424	0.895522	9.11099			0.660072	6.7365	0.823603	8.37512	0.989974	10.0825
0.436716	4.40166	0.212151	2.10658	0.762713	7.72593	0.90084	9.07904			0.663578	6.70849	0.829343	8.35434	0.99461	10.0345
0.438038	4.37391	0.214236	2.10778	0.768086	7.70761	0.906173	9.04782			0.667032	6.68049	0.835084	8.33396	0.999267	9.98758
0.439354	4.34662	0.216321	2.10896	0.773422	7.68927	0.911519	9.01731			0.670437	6.65251	0.840826	8.31396	1.00395	9.94176
0.440666	4.31978	0.218406	2.11012	0.778722	7.6709	0.916879	8.9875			0.673792	6.62456	0.846568	8.29432		
0.441975	4.29339	0.22049	2.11126	0.783985	7.65251	0.922253	8.95836			0.677099	6.59665	0.852308	8.27502		
0.443279	4.26744	0.222575	2.11237	0.78921	7.63409	0.92764	8.92988			0.680359	6.56878	0.858046	8.25604		
0.44458	4.24192	0.224659	2.11347	0.794398	7.61564	0.93304	8.90202			0.683572	6.54096	0.863779	8.23737		
0.445879	4.21682	0.226744	2.11454	0.799548	7.59716	0.938454	8.87478			0.68674	6.51321	0.869508	8.21898		
0.447174	4.19214	0.228828	2.1156	0.80466	7.57863	0.94388	8.84814			0.689862	6.48551	0.875232	8.20085		
0.448468	4.16786	0.230912	2.11664	0.809733	7.56007	0.949319	8.82207			0.69294	6.45788	0.880948	8.18298		
0.449759	4.14398	0.232997	2.11766	0.814767	7.54148	0.954769	8.79656			0.695975	6.43033	0.886657	8.16534		
0.451049	4.12049	0.235081	2.11866	0.819762	7.52284	0.960232	8.77159			0.698967	6.40286	0.892357	8.14792		
0.452338	4.09739	0.237165	2.11964	0.824719	7.50416	0.965706	8.74715			0.701918	6.37548	0.898047	8.13071		
0.453625	4.07466	0.239249	2.12061	0.829636	7.48544	0.97119	8.72321			0.704828	6.34819	0.903727	8.11369		
0.454911	4.0523	0.241333	2.12156	0.834513	7.46668	0.976686	8.69976			0.707698	6.32099	0.909396	8.09686		
0.456196	4.0303	0.243417	2.12249	0.839351	7.44788	0.982191	8.67679			0.710528	6.2939	0.915052	8.08019		
0.457481	4.00866	0.2455	2.12341	0.84415	7.42904	0.987706	8.65428			0.713321	6.26691	0.920696	8.06368		
0.458766	3.98736	0.247584	2.12432	0.848908	7.41016	0.99323	8.63221			0.716075	6.24004	0.926325	8.04732		
0.460051	3.96641	0.249668	2.12521	0.853628	7.39125	0.998762	8.61057			0.718793	6.21327	0.93194	8.0311		
0.461336	3.94579	0.251751	2.12608	0.858307	7.37229	1.0043	8.58934			0.721475	6.18663	0.937539	8.015		
0.462621	3.9255	0.253835	2.12694	0.862948	7.3533					0.724121	6.16011	0.943122	7.99901		
0.463906	3.90553	0.255918	2.12779	0.867548	7.33428					0.726733	6.13371	0.948689	7.98314		
0.465192	3.88588	0.258002	2.12862	0.87211	7.31522					0.729311	6.10744	0.954237	7.96737		
0.466479	3.86654	0.260085	2.12944	0.876631	7.29613					0.731856	6.0813	0.959768	7.95168		
0.467767	3.8475	0.262169	2.13025	0.881114	7.27701					0.734368	6.0553	0.965279	7.93609		
0.469056	3.82876	0.264252	2.13104	0.885558	7.25786					0.736849	6.02944	0.970771	7.92057		
0.470346	3.81031	0.266335	2.13183	0.889963	7.23869					0.739299	6.00371	0.976243	7.90512		
0.471637	3.79215	0.268418	2.1326	0.894329	7.21949					0.741718	5.97813	0.981693	7.88973		
0.47293	3.77427	0.270501	2.13335	0.898656	7.20027					0.744108	5.95269	0.987123	7.87441		
0.474225	3.75667	0.272584	2.1341	0.902945	7.18103					0.746469	5.9274	0.992531	7.85914		
0.475521	3.73934	0.274668	2.13484	0.907196	7.16177					0.748802	5.90226	0.997916	7.84391		
0.476818	3.72227	0.276751	2.13556	0.911409	7.1425					0.751108	5.87727	1.00328	7.82873		
0.478118	3.70547	0.278833	2.13628	0.915585	7.12321					0.753386	5.85243				
0.47942	3.68892	0.280916	2.13698	0.919723	7.10391					0.755638	5.82775				
0.480723	3.67262	0.282999	2.13768	0.923824	7.0846					0.757864	5.80322				
0.482029	3.65657	0.285082	2.13836	0.927887	7.06528					0.760065	5.77884				
0.483337	3.64076	0.287165	2.13903	0.931914	7.04596					0.762242	5.75463				
0.484647	3.62519	0.289248	2.1397	0.935905	7.02664					0.764395	5.73057				
0.48596	3.60985	0.29133	2.14035	0.93986	7.00731					0.766524	5.70668				
0.487275	3.59474	0.293413	2.141	0.943778	6.98799					0.768631	5.68294				
0.488592	3.57985	0.295496	2.14164	0.947662	6.96866					0.770715	5.65937				
0.489912	3.56518	0.297578	2.14226	0.95151	6.94935					0.772778	5.63595				
0.491235	3.55073	0.299661	2.14288	0.955323	6.93004					0.774819	5.61271				
0.49256	3.53649	0.301743	2.14349	0.959101	6.91074					0.77684	5.58962				
0.493888	3.52247	0.303826	2.1441	0.962845	6.89145					0.778841	5.5667				
0.495218	3.50864	0.305908	2.14469	0.966555	6.87218					0.780822	5.54394				
0.496551	3.49502	0.307991	2.14528	0.970231	6.85292					0.782784	5.52134				
0.497888	3.48159	0.310073	2.14586	0.973874	6.83368					0.784727	5.49891				
0.499227	3.46836	0.312155	2.14643	0.977483	6.81446					0.786652	5.47665				
0.500569	3.45531	0.314238	2.14699	0.98106	6.79526					0.78856	5.45455				
0.501913	3.44246	0.31632	2.14755	0.984604	6.77608					0.79045	5.43261				
