Sym0		Sym1		Sym2		Sym3		Asym1		Asym2		Asym3	
516  Points		516  Points		490  Points		243  Points		519  Points		377  Points		159  Points	
Freq (MHz)	Vgr (m/ms)	Freq (MHz)	Vgr (m/ms)	Freq (MHz)	Vgr (m/ms)	Freq (MHz)	Vgr (m/ms)	Freq (MHz)	Vgr (m/ms)	Freq (MHz)	Vgr (m/ms)	Freq (MHz)	Vgr (m/ms)
1.00064	2.06468	1.00075	2.06462	0.456442	0.411999	0.912871	-0.000399824	0.228237	0.0829056	1.00036	1.65709	0.899867	0.0167671
0.999072	2.06588	0.999176	2.06577	0.456755	0.6593	0.912871	-0.000605624	0.228301	0.11133	0.999098	1.66236	0.89988	0.0258756
0.997499	2.06843	0.997604	2.06823	0.457445	1.0588	0.91287	-0.00104362	0.228407	0.168165	0.997829	1.67288	0.899906	0.0440515
0.995925	2.0711	0.996029	2.07089	0.458366	1.29852	0.912869	-0.00147109	0.228556	0.224875	0.996552	1.68343	0.899947	0.0622832
0.994348	2.07392	0.994453	2.07372	0.459421	1.43805	0.912868	-0.00187752	0.228749	0.281244	0.995268	1.69413	0.900001	0.080537
0.992769	2.07697	0.992874	2.07677	0.460554	1.5231	0.912866	-0.00233157	0.228984	0.33729	0.993975	1.70494	0.900069	0.0986555
0.991188	2.0802	0.991293	2.07999	0.461738	1.57856	0.912864	-0.00279116	0.229262	0.392958	0.992674	1.71579	0.900151	0.116772
0.989604	2.08361	0.98971	2.08339	0.462956	1.61726	0.912862	-0.00317212	0.229582	0.448141	0.991364	1.72672	0.900247	0.134886
0.988018	2.0872	0.988124	2.08695	0.464198	1.64596	0.912859	-0.00357523	0.229944	0.50289	0.990047	1.73775	0.900356	0.152905
0.986429	2.09096	0.986535	2.09067	0.46546	1.66837	0.912856	-0.00402262	0.230347	0.557041	0.98872	1.74884	0.90048	0.17091
0.984837	2.09491	0.984943	2.09462	0.466737	1.68654	0.912853	-0.0043792	0.230791	0.610535	0.987386	1.76	0.900617	0.188892
0.983242	2.09903	0.983348	2.09874	0.468026	1.70182	0.91285	-0.00473354	0.231276	0.663432	0.986043	1.7712	0.900767	0.206735
0.981643	2.10333	0.98175	2.10304	0.469326	1.71514	0.912846	-0.00508341	0.231801	0.715584	0.984691	1.78248	0.900931	0.224481
0.980041	2.10779	0.980148	2.10752	0.470636	1.72698	0.912842	-0.00542434	0.232365	0.766963	0.983331	1.79382	0.901109	0.242212
0.978436	2.11242	0.978543	2.11216	0.471954	1.73767	0.912838	-0.00574738	0.232968	0.817603	0.981962	1.80519	0.9013	0.259912
0.976828	2.11728	0.976934	2.11696	0.473279	1.74746	0.912833	-0.00603465	0.233609	0.867395	0.980584	1.81654	0.901504	0.27746
0.975215	2.12224	0.975322	2.12189	0.474612	1.75655	0.912829	-0.00634008	0.234287	0.916295	0.979198	1.82794	0.901722	0.294887
0.973599	2.12733	0.973706	2.127	0.475952	1.76513	0.912824	-0.00659214	0.235003	0.964311	0.977803	1.83945	0.901953	0.312247
0.971978	2.13265	0.972086	2.13228	0.477298	1.77323	0.912819	-0.00682714	0.235755	1.01145	0.976399	1.85088	0.902197	0.329476
0.970354	2.13809	0.970462	2.13774	0.47865	1.78092	0.912813	-0.00702803	0.236542	1.05766	0.974987	1.86236	0.902454	0.346621
0.968725	2.14369	0.968834	2.14328	0.480007	1.7883	0.912808	-0.00725041	0.237364	1.10289	0.973566	1.87384	0.902724	0.363687
0.967092	2.14941	0.967201	2.14896	0.481371	1.79535	0.912802	-0.00742606	0.23822	1.14715	0.972136	1.88531	0.903007	0.380598
0.965455	2.15519	0.965564	2.15486	0.482739	1.80218	0.912797	-0.00750825	0.239109	1.19046	0.970697	1.89676	0.903303	0.397375
0.963813	2.1612	0.963923	2.16083	0.484112	1.80877	0.912791	-0.00767264	0.240031	1.23277	0.96925	1.90819	0.903612	0.414065
0.962167	2.1673	0.962276	2.16685	0.485491	1.81511	0.912785	-0.0077323	0.240985	1.27406	0.967794	1.91966	0.903933	0.430581
0.960516	2.17349	0.960626	2.17307	0.486874	1.82135	0.912779	-0.00776191	0.241969	1.3144	0.96633	1.93103	0.904267	0.446928
0.95886	2.17977	0.95897	2.17939	0.488262	1.82737	0.912773	-0.00782114	0.242985	1.35372	0.964856	1.94237	0.904613	0.463206
0.9572	2.18613	0.95731	2.18576	0.489654	1.83322	0.912767	-0.00776019	0.244029	1.39199	0.963374	1.95374	0.904972	0.479348
0.955534	2.19268	0.955645	2.19221	0.491051	1.8389	0.912761	-0.00772799	0.245102	1.42932	0.961884	1.96501	0.905342	0.495304
0.953863	2.19921	0.953975	2.19875	0.492452	1.84443	0.912755	-0.00766359	0.246204	1.4657	0.960385	1.97615	0.905725	0.511071
0.952188	2.20583	0.952299	2.20537	0.493857	1.84984	0.91275	-0.0075348	0.247332	1.50104	0.958877	1.98732	0.90612	0.526727
0.950507	2.21251	0.950619	2.21206	0.495267	1.85511	0.912744	-0.00736691	0.248487	1.53548	0.957361	1.99844	0.906527	0.542251
0.948822	2.21922	0.948934	2.21881	0.49668	1.86026	0.912738	-0.00712084	0.249515	1.56465	0.955837	2.00947	0.906945	0.557512
0.947131	2.22603	0.947243	2.22557	0.498097	1.86526	0.912733	-0.00689781	0.250406	1.58896	0.954304	2.0204	0.907375	0.572694
0.945435	2.23281	0.945548	2.23238	0.499518	1.87016	0.912728	-0.00663116	0.251154	1.60872	0.952763	2.03122	0.907816	0.587719
0.943734	2.23965	0.943847	2.23917	0.500942	1.87493	0.912723	-0.00627727	0.251751	1.62407	0.951213	2.04201	0.908269	0.60252
0.942027	2.24652	0.942141	2.24602	0.50237	1.87962	0.912718	-0.00592829	0.252194	1.63538	0.949656	2.05266	0.908733	0.617141
0.940316	2.25335	0.94043	2.2529	0.503802	1.88416	0.912714	-0.00549944	0.252479	1.64238	0.94809	2.06319	0.909208	0.631581
0.938599	2.26019	0.938713	2.25976	0.505237	1.88857	0.91271	-0.00500055	0.25289	1.65225	0.946517	2.07365	0.909694	0.645931
0.936877	2.26704	0.936992	2.26658	0.506675	1.89292	0.912706	-0.00454099	0.253341	1.66323	0.944935	2.08401	0.910191	0.660009
0.93515	2.27385	0.935265	2.2734	0.508117	1.89713	0.912703	-0.00398069	0.253958	1.67778	0.943346	2.09421	0.910698	0.673902
0.933418	2.28065	0.933533	2.28022	0.509562	1.90125	0.9127	-0.0033086	0.254746	1.69573	0.941749	2.10431	0.911216	0.687695
0.93168	2.28742	0.931796	2.28694	0.51101	1.90527	0.912698	-0.00268205	0.255711	1.71714	0.940145	2.11428	0.911744	0.701196
0.929937	2.29416	0.930053	2.29367	0.512461	1.90918	0.912696	-0.00196716	0.256857	1.74171	0.938532	2.12409	0.912283	0.714565
0.92819	2.30082	0.928306	2.3004	0.513914	1.91296	0.912695	-0.0011653	0.258193	1.76902	0.936913	2.13383	0.912832	0.727757
0.926437	2.3074	0.926553	2.30704	0.515371	1.91666	0.912694	-0.000368905	0.259549	1.7955	0.935286	2.14335	0.91339	0.740685
0.924679	2.31403	0.924796	2.31359	0.51683	1.9203	0.912695	0.000506255	0.260924	1.82117	0.933652	2.15272	0.913959	0.753444
0.922916	2.32054	0.923033	2.32004	0.518293	1.92381	0.912695	0.00144925	0.262319	1.84602	0.932011	2.16202	0.914537	0.766046
0.921148	2.32694	0.921266	2.3265	0.519757	1.92716	0.912697	0.00243821	0.263733	1.87011	0.930362	2.17113	0.915124	0.778423
0.919376	2.33327	0.919494	2.33287	0.521225	1.93045	0.912699	0.00351909	0.265165	1.89337	0.928707	2.18002	0.915721	0.790617
0.917598	2.33956	0.917717	2.33915	0.522695	1.93371	0.912702	0.00460443	0.266614	1.91589	0.927046	2.18882	0.916327	0.802627
0.915816	2.34578	0.915935	2.34534	0.524167	1.93681	0.912706	0.00578837	0.26808	1.9377	0.925377	2.19746	0.916942	0.814357
0.914029	2.35184	0.914148	2.35143	0.525641	1.93979	0.912711	0.00707981	0.269562	1.95874	0.923702	2.20586	0.917566	0.825977
0.912238	2.35786	0.912357	2.35752	0.527118	1.94269	0.912717	0.00831715	0.27106	1.97912	0.922021	2.21413	0.918199	0.837375
0.910442	2.36382	0.910561	2.36341	0.528597	1.94554	0.912724	0.0097154	0.272573	1.99882	0.920334	2.22224	0.91884	0.848511
0.908642	2.36962	0.908761	2.3692	0.530078	1.94828	0.912732	0.0111663	0.274101	2.01783	0.91864	2.23011	0.91949	0.859479
0.906837	2.37532	0.906957	2.37494	0.531561	1.95088	0.912741	0.012633	0.275643	2.03621	0.916941	2.23787	0.920148	0.870293
0.905028	2.38096	0.905148	2.38058	0.533046	1.95339	0.912751	0.0142207	0.277199	2.05392	0.915235	2.24541	0.920814	0.880886
0.903214	2.38651	0.903335	2.38613	0.534533	1.95581	0.912762	0.0158712	0.278768	2.07103	0.913524	2.25277	0.921488	0.89122
0.901397	2.39186	0.901518	2.39157	0.536022	1.95815	0.912775	0.0175576	0.28035	2.08752	0.911808	2.25997	0.92217	0.901392
0.899575	2.39719	0.899696	2.3969	0.537512	1.9604	0.912789	0.0193157	0.281944	2.10344	0.910086	2.26691	0.922859	0.91133
0.89775	2.40245	0.897871	2.40208	0.539005	1.96258	0.912804	0.0212173	0.28355	2.11884	0.908359	2.2737	0.923556	0.921069
0.89592	2.40752	0.896042	2.40715	0.540498	1.96459	0.912821	0.0231366	0.285168	2.13363	0.906627	2.28029	0.924261	0.930681
0.894087	2.41253	0.894209	2.41218	0.541994	1.96655	0.912839	0.0250916	0.286796	2.14784	0.904889	2.28666	0.924972	0.940037
0.892249	2.41745	0.892372	2.41711	0.54349	1.9684	0.912859	0.0272074	0.288436	2.16158	0.903148	2.29284	0.925691	0.949151
0.890409	2.42217	0.890531	2.42188	0.544988	1.97014	0.912881	0.0293759	0.290085	2.17482	0.901401	2.29884	0.926416	0.958049
0.888564	2.42685	0.888687	2.42656	0.546488	1.97183	0.912904	0.0315601	0.291744	2.1875	0.89965	2.30464	0.927148	0.966787
0.886716	2.43146	0.886839	2.43117	0.547988	1.97341	0.912929	0.0338652	0.293413	2.19976	0.897895	2.31024	0.927887	0.975381
0.884865	2.43593	0.884988	2.43564	0.54949	1.97487	0.912956	0.0362328	0.295091	2.21154	0.896135	2.3156	0.928632	0.983689
0.88301	2.4403	0.883133	2.44001	0.550993	1.97626	0.912984	0.0387255	0.296778	2.22281	0.894371	2.32076	0.929384	0.991783
0.881152	2.44455	0.881276	2.44426	0.552304	1.97738	0.913014	0.041289	0.298473	2.23365	0.892604	2.32571	0.930141	0.999718
0.879291	2.44874	0.879415	2.44846	0.553421	1.97827	0.913047	0.0439042	0.300176	2.24409	0.890833	2.33049	0.930905	1.00743
0.877426	2.45281	0.87755	2.45254	0.554346	1.97899	0.913081	0.0466229	0.301887	2.25407	0.889058	2.33502	0.931674	1.01495
0.875559	2.45673	0.875683	2.45649	0.555077	1.97953	0.913118	0.0493693	0.303606	2.26363	0.88728	2.33934	0.932449	1.02228
0.873689	2.46063	0.873813	2.46036	0.555615	1.97998	0.913156	0.0522606	0.305331	2.27281	0.885499	2.34348	0.93323	1.0294
0.871815	2.4644	0.87194	2.46415	0.555959	1.9802	0.913197	0.0552625	0.307064	2.28157	0.883715	2.34738	0.934015	1.03629
0.869939	2.46808	0.870064	2.46787	0.556454	1.9805	0.91324	0.0583061	0.308803	2.28994	0.881928	2.35105	0.934806	1.04298
0.86806	2.47168	0.868185	2.47146	0.556993	1.98087	0.913286	0.0614331	0.310548	2.29794	0.880138	2.35452	0.935602	1.04954
0.866179	2.47519	0.866304	2.47496	0.557725	1.98128	0.913334	0.0646372	0.312299	2.30561	0.878345	2.35779	0.936403	1.05586
0.864294	2.47863	0.86442	2.47836	0.558651	1.98181	0.913384	0.0679956	0.314056	2.31286	0.876551	2.36084	0.937209	1.06193
0.862407	2.48191	0.862533	2.48166	0.559771	1.98236	0.913437	0.0713932	0.315818	2.3198	0.874754	2.3637	0.938019	1.06789
0.860518	2.48515	0.860644	2.48495	0.561085	1.983	0.913493	0.0748695	0.317585	2.32641	0.872954	2.36629	0.938833	1.07363
0.858626	2.48832	0.858752	2.48812	0.562594	1.9837	0.913551	0.0785031	0.319357	2.33263	0.871153	2.36868	0.939652	1.07909
0.856732	2.49135	0.856858	2.49115	0.564103	1.98423	0.913612	0.082182	0.321134	2.33853	0.869351	2.37087	0.940475	1.08445
0.854836	2.49435	0.854962	2.49415	0.565613	1.98467	0.913676	0.0859519	0.322915	2.34416	0.867546	2.37281	0.941302	1.0896
0.852937	2.4973	0.853064	2.4971	0.567123	1.98503	0.913743	0.0898137	0.324701	2.34945	0.86574	2.37456	0.942133	1.09453
0.851036	2.50015	0.851163	2.49996	0.568633	1.98525	0.913813	0.0937699	0.32649	2.35442	0.863933	2.37606	0.942967	1.09928
0.849133	2.50289	0.84926	2.5027	0.570143	1.98541	0.913886	0.0978251	0.328283	2.35911	0.862125	2.37737	0.943805	1.10383
0.847228	2.50559	0.847355	2.50542	0.571654	1.98548	0.913962	0.101989	0.330079	2.36347	0.860316	2.37847	0.944647	1.10819
0.845321	2.50821	0.845448	2.50806	0.573164	1.98543	0.914041	0.106279	0.331879	2.36758	0.858507	2.37932	0.945491	1.11233
0.843412	2.51076	0.843539	2.51057	0.574674	1.98532	0.914124	0.110643	0.333681	2.37138	0.856696	2.37994	0.946339	1.11631
0.841501	2.51326	0.841628	2.51308	0.576185	1.98508	0.914209	0.115066	0.335487	2.3749	0.854886	2.38038	0.94719	1.12013
0.839589	2.51564	0.839716	2.5155	0.577695	1.98474	0.914299	0.119607	0.337295	2.37814	0.853075	2.38054	0.948043	1.12374
0.837674	2.518	0.837801	2.51783	0.579204	1.9843	0.914391	0.124292	0.339105	2.38115	0.851264	2.38049	0.9489	1.12711
0.835757	2.52029	0.835885	2.52016	0.580714	1.98376	0.914488	0.129088	0.340917	2.38386	0.849453	2.38023	0.949758	1.13035
0.833839	2.52255	0.833967	2.52239	0.582222	1.98318	0.914588	0.133925	0.342732	2.3863	0.847642	2.37978	0.950619	1.13342
0.83192	2.52472	0.832047	2.5246	0.583731	1.98244	0.914691	0.138845	0.344548	2.3885	0.845832	2.37907	0.951483	1.13624
0.829998	2.52683	0.830126	2.52669	0.585239	1.98158	0.914799	0.143931	0.346366	2.39041	0.844023	2.3781	0.952348	1.13892
0.828075	2.52889	0.828203	2.52873	0.586746	1.98066	0.91491	0.149169	0.348185	2.39213	0.842214	2.37696	0.953215	1.1414
0.826151	2.53085	0.826278	2.53074	0.588252	1.97961	0.915026	0.154442	0.350005	2.39361	0.840406	2.37559	0.954085	1.14368
0.824225	2.5328	0.824353	2.53269	0.589758	1.97846	0.915145	0.159786	0.351827	2.39476	0.8386	2.374	0.954956	1.14582
0.822297	2.53474	0.822425	2.53462	0.591262	1.97726	0.915269	0.165271	0.353649	2.39574	0.836794	2.37217	0.955828	1.14776
0.820368	2.53654	0.820496	2.53641	0.592766	1.97594	0.915397	0.170859	0.355472	2.39649	0.834991	2.37004	0.956702	1.14949
0.818438	2.53835	0.818566	2.53821	0.594269	1.97447	0.915529	0.176564	0.357295	2.39696	0.833188	2.36776	0.957577	1.15107
0.816506	2.5401	0.816635	2.54001	0.59577	1.97293	0.915665	0.182411	0.359119	2.39724	0.831388	2.36525	0.958453	1.15252
0.814573	2.54179	0.814702	2.54172	0.59727	1.97131	0.915807	0.188365	0.360942	2.39725	0.82959	2.36247	0.95933	1.15371
0.812639	2.54348	0.812767	2.54335	0.598769	1.96955	0.915952	0.194352	0.362766	2.39707	0.827794	2.35952	0.960208	1.15475
0.810703	2.54505	0.810832	2.54491	0.600267	1.96774	0.916102	0.200494	0.364589	2.39667	0.826	2.3563	0.961087	1.15566
0.808767	2.54659	0.808895	2.5465	0.601763	1.96579	0.916237	0.205942	0.366412	2.39602	0.824209	2.35283	0.961967	1.15632
0.806829	2.54814	0.806958	2.54807	0.603258	1.9637	0.916355	0.210607	0.368235	2.3952	0.82242	2.34913	0.962847	1.15684
0.80489	2.54961	0.805019	2.54951	0.604751	1.96154	0.916454	0.214583	0.370056	2.39412	0.820635	2.34521	0.963727	1.15724
0.80295	2.55105	0.803079	2.55095	0.606242	1.95929	0.916534	0.217853	0.371877	2.39281	0.818852	2.34105	0.964607	1.15742
0.801009	2.55248	0.801138	2.55239	0.607732	1.95695	0.916593	0.220116	0.373697	2.39131	0.817073	2.33668	0.965488	1.15742
0.799066	2.55381	0.799195	2.55375	0.609219	1.95448	0.916632	0.22144	0.375516	2.38962	0.815297	2.33206	0.966255	1.15733
0.797123	2.55513	0.797252	2.55503	0.610705	1.9519	0.916687	0.223662	0.377333	2.38769	0.813525	2.32713	0.966909	1.1571
0.795179	2.55643	0.795308	2.55635	0.612189	1.94922	0.916748	0.226143	0.379148	2.38552	0.811756	2.32203	0.96745	1.15685
0.793234	2.55768	0.793363	2.55762	0.613671	1.9464	0.916833	0.229278	0.380962	2.38318	0.809992	2.31675	0.967877	1.15662
0.791287	2.55894	0.791417	2.55883	0.615151	1.94351	0.916941	0.233495	0.382774	2.38066	0.808232	2.31114	0.968191	1.1566
0.78934	2.56009	0.78947	2.56	0.616628	1.94054	0.917074	0.238551	0.384584	2.37792	0.806476	2.30529	0.968392	1.1565
0.787392	2.56124	0.787522	2.56116	0.618103	1.93744	0.917234	0.244535	0.386392	2.37498	0.804724	2.29925	0.968681	1.15615
0.785443	2.56236	0.785573	2.56232	0.619576	1.93423	0.917423	0.251542	0.388198	2.37186	0.802977	2.29292	0.968995	1.15587
0.783494	2.56344	0.783623	2.56339	0.621046	1.93092	0.917617	0.258678	0.390001	2.3685	0.801236	2.28634	0.969422	1.15549
0.781543	2.56452	0.781673	2.56444	0.622513	1.92752	0.917816	0.265924	0.391801	2.36493	0.799499	2.27956	0.969962	1.155
0.779592	2.56553	0.779722	2.56547	0.623978	1.92398	0.918021	0.273225	0.393599	2.36118	0.797767	2.27254	0.970615	1.15427
0.77764	2.56655	0.77777	2.56645	0.625441	1.92037	0.918232	0.280733	0.395394	2.35719	0.796041	2.26523	0.97138	1.15331
0.775687	2.56751	0.775817	2.56742	0.6269	1.91664	0.918449	0.288344	0.397185	2.35305	0.794321	2.2577	0.972257	1.15207
0.773734	2.56845	0.773863	2.56838	0.628357	1.91275	0.918671	0.296006	0.398974	2.34878	0.792606	2.24991	0.973133	1.15069
0.771779	2.56935	0.771909	2.56931	0.62981	1.90879	0.918899	0.303785	0.400759	2.34427	0.790898	2.24186	0.974007	1.14919
0.769824	2.57025	0.769954	2.5702	0.631261	1.90475	0.919133	0.311711	0.40254	2.3395	0.789195	2.23356	0.974881	1.1475
0.767869	2.57114	0.767999	2.57106	0.632708	1.90062	0.919373	0.319755	0.404318	2.33456	0.7875	2.22503	0.975753	1.14563
0.765913	2.57195	0.766043	2.5719	0.634153	1.89631	0.91962	0.327948	0.406092	2.32949	0.78581	2.21624	0.976624	1.14365
0.763956	2.57275	0.764086	2.57267	0.635593	1.89191	0.919872	0.336216	0.407862	2.32421	0.784128	2.20717	0.977493	1.14155
0.761998	2.57354	0.762128	2.57351	0.637031	1.88747	0.920131	0.344566	0.409628	2.31871	0.782452	2.19792	0.978361	1.13928
0.76004	2.57432	0.76017	2.57428	0.638465	1.88287	0.920396	0.353092	0.41139	2.31299	0.780784	2.18838	0.979227	1.13685
0.758082	2.57507	0.758212	2.57501	0.639896	1.87815	0.920668	0.361705	0.413148	2.30718	0.779123	2.17855	0.98009	1.13429
0.756122	2.57577	0.756253	2.57575	0.641323	1.87337	0.920947	0.370452	0.414901	2.30117	0.777469	2.16849	0.980952	1.13162
0.754163	2.57644	0.754293	2.57643	0.642746	1.86847	0.921232	0.379311	0.416649	2.2949	0.775823	2.15822	0.981812	1.12876
0.752202	2.57716	0.752333	2.57707	0.644165	1.86342	0.921524	0.388225	0.418392	2.28849	0.774185	2.14765	0.98267	1.1258
0.750242	2.57779	0.750372	2.57772	0.645581	1.85829	0.921823	0.397302	0.420131	2.28192	0.772556	2.13683	0.983525	1.12276
0.74828	2.57842	0.748411	2.57839	0.646993	1.85308	0.922128	0.406505	0.421864	2.27518	0.770934	2.12577	0.984378	1.11953
0.746319	2.57906	0.746449	2.57903	0.6484	1.84774	0.922441	0.415816	0.423592	2.26822	0.769321	2.11441	0.985228	1.11616
0.744357	2.57962	0.744487	2.57958	0.649804	1.84233	0.922761	0.425226	0.425315	2.26111	0.767717	2.10281	0.986076	1.11273
0.742394	2.5802	0.742524	2.58013	0.651203	1.8368	0.923088	0.43473	0.427032	2.25383	0.766122	2.091	0.986921	1.10913
0.740431	2.58074	0.740561	2.58071	0.652599	1.83112	0.923422	0.444371	0.428744	2.24633	0.764536	2.07896	0.987764	1.10541
0.738468	2.58127	0.738598	2.58124	0.653989	1.82541	0.923764	0.45417	0.43045	2.23868	0.762959	2.06662	0.988603	1.10161
0.736504	2.58179	0.736634	2.58176	0.655376	1.81955	0.924113	0.464003	0.43215	2.23091	0.761392	2.05397	0.98944	1.0977
0.734539	2.5823	0.73467	2.58226	0.656758	1.81357	0.92447	0.473943	0.433844	2.22294	0.759834	2.04114	0.990273	1.09368
0.732575	2.58278	0.732705	2.58273	0.658135	1.80758	0.924834	0.484071	0.435532	2.21474	0.758286	2.02805	0.991104	1.08956
0.73061	2.58321	0.73074	2.58321	0.659508	1.80139	0.925207	0.494248	0.437214	2.20647	0.756749	2.01468	0.991931	1.0853
0.728645	2.58361	0.728775	2.58363	0.660876	1.79516	0.925586	0.504539	0.438889	2.19803	0.755221	2.00112	0.992755	1.08093
0.726679	2.58406	0.72681	2.58402	0.662239	1.78882	0.925974	0.514932	0.440558	2.18942	0.753704	1.9873	0.993576	1.07655
0.724713	2.58451	0.724844	2.58444	0.663597	1.78237	0.92637	0.525421	0.44222	2.18062	0.752197	1.97318	0.994393	1.07202
0.722747	2.58487	0.722877	2.58485	0.664951	1.77587	0.926774	0.536048	0.443876	2.1717	0.750702	1.95886	0.995207	1.06739
0.72078	2.58522	0.720911	2.5852	0.666299	1.76917	0.927185	0.546743	0.445524	2.16261	0.749217	1.9443	0.996017	1.06269
0.718814	2.58558	0.718944	2.58555	0.667643	1.76246	0.927605	0.557563	0.447166	2.15336	0.747744	1.92944	0.996823	1.05792
0.716846	2.58592	0.716977	2.5859	0.668981	1.75569	0.928034	0.56849	0.448801	2.14403	0.746282	1.91443	0.997626	1.05307
0.714879	2.58625	0.71501	2.58624	0.670314	1.74877	0.92847	0.57947	0.450428	2.13456	0.744831	1.89913	0.998426	1.04813
0.712912	2.58656	0.713042	2.58655	0.671642	1.74176	0.928915	0.590611	0.452048	2.12489	0.743392	1.8836	0.999221	1.04315
0.710944	2.58682	0.711075	2.58682	0.672964	1.73467	0.929369	0.601833	0.453661	2.11508	0.741965	1.86788	1.00001	1.04062
0.708976	2.58706	0.709107	2.58708	0.674281	1.72744	0.929831	0.613095	0.455266	2.1052	0.74055	1.85186		
0.707008	2.58737	0.707138	2.58734	0.675592	1.7202	0.930302	0.624467	0.456864	2.09514	0.739148	1.8357		
0.705039	2.58764	0.70517	2.58759	0.676898	1.7129	0.930781	0.635984	0.458454	2.085	0.737757	1.81925		
0.703071	2.5878	0.703202	2.58782	0.678198	1.70548	0.931269	0.647573	0.460036	2.07477	0.73638	1.8026		
0.701102	2.58804	0.701233	2.58801	0.679493	1.69796	0.931766	0.659198	0.461611	2.06437	0.735015	1.78579		
