Sym0		Asym0		Sym1		Sym2		Asym1		Asym2	
593  Points		593  Points		593  Points		559  Points		594  Points		284  Points	
Freq (MHz)	Vph (m/ms)	Freq (MHz)	Vph (m/ms)	Freq (MHz)	Vph (m/ms)	Freq (MHz)	Vph (m/ms)	Freq (MHz)	Vph (m/ms)	Freq (MHz)	Vph (m/ms)
1.00019	2.58596	0.314587	616.703	1.00043	2.58578	0.629156	2071.12	0.314576	14450.7	1.00128	5.45786
0.998852	2.58692	0.314633	269.166	0.999093	2.58674	0.629185	653.642	0.314596	462.249	0.999292	5.46666
0.997517	2.58787	0.314714	172.189	0.997758	2.5877	0.629244	388.089	0.31465	234.922	0.9973	5.4755
0.996179	2.58883	0.314831	126.615	0.996421	2.58866	0.629334	275.999	0.314741	157.513	0.995301	5.48436
0.994839	2.58978	0.314984	100.143	0.99508	2.58961	0.629453	214.172	0.314868	118.505	0.993295	5.49325
0.993495	2.59072	0.315173	82.8497	0.993737	2.59055	0.629603	174.996	0.31503	95.0084	0.991284	5.50218
0.992148	2.59167	0.315397	70.6699	0.992391	2.5915	0.629782	147.953	0.315227	79.3101	0.989268	5.51114
0.990799	2.5926	0.315656	61.6303	0.991042	2.59243	0.629991	128.166	0.31546	68.0836	0.987246	5.52014
0.989446	2.59353	0.31595	54.6572	0.98969	2.59336	0.630229	113.061	0.315729	59.6589	0.98522	5.52917
0.98809	2.59446	0.316279	49.1164	0.988335	2.59429	0.630497	101.154	0.316032	53.1053	0.983189	5.53825
0.98673	2.59538	0.316643	44.609	0.986976	2.59521	0.630794	91.5275	0.31637	47.8634	0.981155	5.54738
0.985367	2.59629	0.317041	40.8717	0.985613	2.59613	0.63112	83.5847	0.316743	43.5765	0.979117	5.55655
0.984	2.5972	0.317474	37.7235	0.984247	2.59703	0.631474	76.9202	0.31715	40.0065	0.977075	5.56578
0.982629	2.5981	0.31794	35.0362	0.982877	2.59794	0.631856	71.249	0.317591	36.9883	0.975031	5.57505
0.981255	2.59899	0.31844	32.7162	0.981503	2.59883	0.632267	66.3652	0.318066	34.4039	0.972984	5.58439
0.979876	2.59988	0.318974	30.6935	0.980125	2.59972	0.632705	62.1158	0.318575	32.1667	0.970935	5.59378
0.978494	2.60075	0.31954	28.9149	0.978743	2.6006	0.63317	58.3852	0.319117	30.2117	0.968884	5.60323
0.977107	2.60162	0.320139	27.3393	0.977357	2.60147	0.633662	55.0843	0.319692	28.4892	0.966831	5.61274
0.975716	2.60249	0.32077	25.9341	0.975967	2.60233	0.634181	52.1431	0.320299	26.9605	0.964778	5.62232
0.974321	2.60334	0.321433	24.6735	0.974573	2.60319	0.634726	49.5063	0.320939	25.595	0.962723	5.63197
0.972921	2.60418	0.322128	23.5366	0.973174	2.60403	0.635297	47.1291	0.32161	24.3682	0.960668	5.6417
0.971517	2.60502	0.322853	22.5062	0.971771	2.60487	0.635893	44.9752	0.322312	23.2603	0.958613	5.65149
0.970109	2.60584	0.323609	21.5684	0.970363	2.6057	0.636514	43.0148	0.323046	22.2552	0.956558	5.66137
0.968696	2.60666	0.324396	20.7114	0.968951	2.60652	0.637159	41.2231	0.32381	21.3393	0.954504	5.67132
0.967278	2.60747	0.325212	19.9254	0.967534	2.60732	0.637829	39.5794	0.324604	20.5016	0.952451	5.68136
0.965856	2.60827	0.326058	19.2021	0.966112	2.60812	0.638522	38.0663	0.325428	19.7325	0.950399	5.69149
0.964429	2.60906	0.326932	18.5345	0.964686	2.60891	0.639239	36.6688	0.326281	19.0243	0.948348	5.7017
0.962997	2.60983	0.327835	17.9165	0.963255	2.60969	0.639978	35.3744	0.327163	18.3701	0.946299	5.71201
0.96156	2.6106	0.328766	17.343	0.96182	2.61046	0.64074	34.1721	0.328073	17.764	0.944253	5.72241
0.960119	2.61136	0.329724	16.8093	0.960379	2.61122	0.641523	33.0525	0.329011	17.2012	0.942209	5.73291
0.958673	2.61211	0.33071	16.3117	0.958934	2.61197	0.642328	32.0076	0.329977	16.6773	0.940167	5.74352
0.957222	2.61284	0.331722	15.8467	0.957484	2.61271	0.643154	31.03	0.330969	16.1884	0.93813	5.75422
0.955767	2.61357	0.33276	15.4113	0.95603	2.61344	0.644	30.1137	0.331988	15.7313	0.936095	5.76504
0.954307	2.61429	0.333823	15.0028	0.95457	2.61416	0.644866	29.253	0.333032	15.3031	0.934065	5.77597
0.952842	2.61499	0.334912	14.6188	0.953106	2.61487	0.645752	28.4432	0.334102	14.9012	0.932038	5.78702
0.951372	2.61569	0.336025	14.2574	0.951637	2.61557	0.646657	27.6798	0.335197	14.5233	0.930016	5.79818
0.949897	2.61637	0.337162	13.9167	0.950163	2.61625	0.64758	26.9591	0.336317	14.1674	0.928	5.80947
0.948418	2.61705	0.338323	13.5949	0.948685	2.61693	0.648522	26.2776	0.33746	13.8317	0.925988	5.82088
0.946934	2.61771	0.339506	13.2906	0.947202	2.61759	0.649482	25.6322	0.338627	13.5145	0.923981	5.83242
0.945445	2.61837	0.340713	13.0025	0.945714	2.61825	0.650459	25.0203	0.339817	13.2146	0.921981	5.8441
0.943952	2.61901	0.341942	12.7294	0.944222	2.61889	0.651452	24.4392	0.341029	12.9304	0.919987	5.85591
0.942454	2.61964	0.343192	12.4701	0.942725	2.61953	0.652463	23.8867	0.342263	12.661	0.917999	5.86787
0.940952	2.62026	0.344463	12.2237	0.941223	2.62015	0.653489	23.3608	0.343519	12.4051	0.916018	5.87997
0.939445	2.62088	0.345755	11.9892	0.939717	2.62077	0.654531	22.8597	0.344795	12.1619	0.914044	5.89221
0.937934	2.62148	0.347067	11.7659	0.938207	2.62137	0.655588	22.3817	0.346093	11.9304	0.912078	5.90461
0.936418	2.62207	0.348399	11.5531	0.936692	2.62196	0.65666	21.9251	0.34741	11.7099	0.910119	5.91717
0.934898	2.62265	0.34975	11.3499	0.935173	2.62255	0.657747	21.4887	0.348747	11.4996	0.908169	5.92989
0.933374	2.62322	0.35112	11.1559	0.933649	2.62312	0.658847	21.0712	0.350103	11.2988	0.906227	5.94278
0.931845	2.62379	0.352509	10.9703	0.932121	2.62369	0.659962	20.6712	0.351478	11.1071	0.904294	5.95583
0.930313	2.62434	0.353915	10.7928	0.930589	2.62424	0.661089	20.2879	0.352871	10.9237	0.90237	5.96906
0.928776	2.62488	0.355338	10.6228	0.929053	2.62479	0.662229	19.9202	0.354281	10.7481	0.900456	5.98247
0.927235	2.62542	0.356779	10.4599	0.927513	2.62532	0.663382	19.5671	0.355709	10.58	0.898551	5.99606
0.92569	2.62594	0.358236	10.3036	0.925969	2.62585	0.664547	19.2278	0.357154	10.4188	0.896657	6.00984
0.924142	2.62646	0.359709	10.1535	0.924421	2.62636	0.665724	18.9016	0.358615	10.2642	0.894773	6.02381
0.922589	2.62696	0.361197	10.0094	0.922869	2.62687	0.666912	18.5876	0.360092	10.1157	0.8929	6.03798
0.921033	2.62746	0.362701	9.87089	0.921314	2.62737	0.668111	18.2853	0.361392	9.99108	0.891038	6.05235
0.919473	2.62795	0.36422	9.73763	0.919754	2.62786	0.669321	17.994	0.36251	9.88818	0.889188	6.06693
0.917909	2.62843	0.365753	9.60936	0.918191	2.62834	0.670542	17.713	0.36344	9.80531	0.887349	6.08172
0.916342	2.6289	0.3673	9.48581	0.916625	2.62882	0.671772	17.442	0.364179	9.74116	0.885523	6.09674
0.914771	2.62936	0.36886	9.36675	0.915055	2.62928	0.673013	17.1803	0.364725	9.69474	0.883709	6.11197
0.913197	2.62982	0.370434	9.25192	0.913481	2.62974	0.674263	16.9276	0.365075	9.66536	0.881908	6.12743
0.91162	2.63027	0.37202	9.14113	0.911904	2.63019	0.675522	16.6832	0.365579	9.62357	0.88012	6.14313
0.910039	2.63071	0.373619	9.03417	0.910324	2.63063	0.676789	16.4469	0.36613	9.57873	0.878346	6.15907
0.908455	2.63114	0.375229	8.93084	0.908741	2.63106	0.678066	16.2183	0.366881	9.5187	0.876586	6.17525
0.906868	2.63156	0.376852	8.83098	0.907154	2.63149	0.67935	15.997	0.367836	9.44431	0.87484	6.19169
0.905278	2.63198	0.378485	8.73441	0.905565	2.63191	0.680643	15.7826	0.368997	9.35655	0.873108	6.20838
0.903685	2.63239	0.380129	8.64098	0.903972	2.63232	0.681943	15.5748	0.370369	9.25658	0.871392	6.22534
0.902088	2.63279	0.381784	8.55054	0.902376	2.63272	0.683251	15.3733	0.371955	9.14563	0.86969	6.24257
0.900489	2.63319	0.383448	8.46295	0.900778	2.63312	0.684566	15.1779	0.373553	9.03851	0.868005	6.26007
0.898887	2.63358	0.385122	8.37808	0.899177	2.63351	0.685888	14.9883	0.375163	8.93504	0.866335	6.27786
0.897283	2.63396	0.386806	8.29581	0.897572	2.63389	0.687216	14.8042	0.376784	8.83503	0.864681	6.29593
0.895676	2.63434	0.388499	8.21602	0.895966	2.63427	0.688551	14.6254	0.378417	8.73833	0.863045	6.3143
0.894066	2.63471	0.3902	8.13861	0.894356	2.63464	0.689892	14.4516	0.380061	8.64477	0.861425	6.33298
0.892453	2.63507	0.391909	8.06346	0.892744	2.63501	0.691238	14.2827	0.381715	8.55421	0.859822	6.35196
0.890838	2.63543	0.393627	7.99049	0.891129	2.63537	0.69259	14.1185	0.383379	8.46651	0.858237	6.37126
0.889221	2.63578	0.395352	7.91959	0.889512	2.63572	0.693948	13.9587	0.385053	8.38153	0.85667	6.39088
0.887601	2.63613	0.397084	7.85069	0.887893	2.63607	0.695311	13.8032	0.386736	8.29916	0.855121	6.41083
0.885979	2.63647	0.398823	7.78369	0.886271	2.63641	0.696678	13.6518	0.388429	8.21927	0.853591	6.43113
0.884354	2.6368	0.400569	7.71852	0.884647	2.63674	0.698051	13.5044	0.390129	8.14176	0.852079	6.45176
0.882727	2.63713	0.402321	7.6551	0.883021	2.63707	0.699427	13.3607	0.391839	8.06652	0.850587	6.47275
0.881099	2.63746	0.404079	7.59336	0.881392	2.6374	0.700808	13.2207	0.393556	7.99346	0.849114	6.4941
0.879468	2.63778	0.405842	7.53324	0.879762	2.63772	0.702193	13.0842	0.39528	7.92248	0.847661	6.51582
0.877834	2.63809	0.407611	7.47467	0.878129	2.63804	0.703582	12.9511	0.397012	7.85349	0.846228	6.53791
0.876199	2.6384	0.409385	7.41758	0.876494	2.63835	0.704974	12.8212	0.398751	7.78641	0.844816	6.56039
0.874562	2.63871	0.411164	7.36193	0.874858	2.63865	0.706369	12.6945	0.400497	7.72117	0.843424	6.58326
0.872923	2.63901	0.412946	7.30765	0.873219	2.63896	0.707768	12.5708	0.402248	7.65768	0.842053	6.60654
0.871283	2.63931	0.414733	7.25469	0.871579	2.63925	0.709169	12.45	0.404006	7.59588	0.840703	6.63022
0.86964	2.6396	0.416524	7.20301	0.869936	2.63954	0.710574	12.3321	0.405769	7.53569	0.839375	6.65432
0.867995	2.63988	0.418318	7.15254	0.868292	2.63983	0.71198	12.2168	0.407538	7.47705	0.838069	6.67884
0.866349	2.64017	0.420115	7.10326	0.866646	2.64012	0.713389	12.1041	0.409312	7.41991	0.836784	6.7038
0.864701	2.64045	0.421915	7.0551	0.864999	2.6404	0.714801	11.994	0.41109	7.3642	0.835522	6.72921
0.863052	2.64072	0.423718	7.00804	0.863349	2.64067	0.716214	11.8863	0.412873	7.30986	0.834282	6.75506
0.861401	2.64099	0.425522	6.96203	0.861698	2.64095	0.717628	11.781	0.41466	7.25685	0.833065	6.78138
0.859748	2.64126	0.427329	6.91703	0.860046	2.64121	0.719045	11.6779	0.41645	7.20511	0.831871	6.80817
0.858094	2.64153	0.429137	6.87301	0.858392	2.64148	0.720462	11.5771	0.418244	7.1546	0.8307	6.83544
0.856438	2.64179	0.430947	6.82993	0.856737	2.64174	0.721881	11.4784	0.420041	7.10527	0.829552	6.86321
0.854781	2.64204	0.432758	6.78775	0.85508	2.642	0.723301	11.3817	0.421841	7.05707	0.828428	6.89147
0.853122	2.6423	0.434569	6.74645	0.853421	2.64225	0.724721	11.2871	0.423643	7.00996	0.827328	6.92024
0.851462	2.64255	0.436381	6.70599	0.851761	2.6425	0.726142	11.1943	0.425448	6.96391	0.826251	6.94953
0.849801	2.6428	0.438193	6.66634	0.8501	2.64275	0.727564	11.1035	0.427255	6.91887	0.825198	6.97935
0.848138	2.64304	0.440004	6.62748	0.848438	2.643	0.728985	11.0144	0.429063	6.87481	0.82417	7.00971
0.846474	2.64328	0.441816	6.58938	0.846774	2.64324	0.730407	10.9271	0.430872	6.83169	0.823166	7.04062
0.844809	2.64352	0.443626	6.552	0.845109	2.64348	0.731828	10.8416	0.432683	6.78947	0.822186	7.07209
0.843142	2.64375	0.445436	6.51533	0.843443	2.64371	0.73325	10.7576	0.434494	6.74813	0.821231	7.10413
0.841474	2.64399	0.447244	6.47934	0.841775	2.64395	0.734488	10.6858	0.436306	6.70764	0.8203	7.13676
0.839806	2.64422	0.449051	6.44401	0.840106	2.64418	0.735543	10.6255	0.438118	6.66796	0.819395	7.16997
0.838136	2.64444	0.450855	6.40932	0.838437	2.6444	0.736415	10.5762	0.43993	6.62907	0.818513	7.20379
0.836464	2.64467	0.452658	6.37523	0.836766	2.64463	0.737104	10.5377	0.441741	6.59093	0.817657	7.23822
0.834792	2.64489	0.454458	6.34174	0.835094	2.64485	0.737611	10.5096	0.443552	6.55353	0.816826	7.27328
0.833119	2.64511	0.456255	6.30882	0.833421	2.64507	0.737935	10.4917	0.445361	6.51683	0.81602	7.30898
0.831445	2.64533	0.458049	6.27645	0.831747	2.64529	0.738401	10.4661	0.447169	6.48082	0.815238	7.34533
0.829769	2.64554	0.45984	6.24462	0.830071	2.6455	0.738907	10.4385	0.448976	6.44546	0.814482	7.38233
0.828093	2.64576	0.461627	6.2133	0.828395	2.64572	0.739596	10.4012	0.450781	6.41074	0.813751	7.42001
0.826416	2.64597	0.46341	6.18248	0.826718	2.64593	0.740466	10.3545	0.452584	6.37663	0.813045	7.45838
0.824738	2.64618	0.465189	6.15214	0.82504	2.64614	0.741518	10.2987	0.454384	6.34311	0.812363	7.49744
0.823059	2.64638	0.466963	6.12226	0.823361	2.64635	0.74275	10.2342	0.456181	6.31017	0.811707	7.53721
0.821379	2.64659	0.468733	6.09283	0.821682	2.64655	0.744163	10.1615	0.457975	6.27778	0.811076	7.5777
0.819698	2.64679	0.470497	6.06384	0.820001	2.64675	0.745574	10.09	0.459766	6.24592	0.810469	7.61893
0.818016	2.64699	0.472256	6.03527	0.818319	2.64695	0.746983	10.0197	0.461553	6.21458	0.809887	7.66091
0.816333	2.64719	0.474009	6.0071	0.816637	2.64715	0.74839	9.95064	0.463337	6.18374	0.809331	7.70365
0.81465	2.64739	0.475757	5.97932	0.814954	2.64735	0.749795	9.88275	0.465116	6.15338	0.808798	7.74716
0.812966	2.64758	0.477497	5.95191	0.81327	2.64755	0.751197	9.81599	0.46689	6.12349	0.808291	7.79147
0.811281	2.64777	0.479232	5.92488	0.811585	2.64774	0.752596	9.75034	0.46866	6.09404	0.807807	7.83658
0.809596	2.64797	0.480959	5.89819	0.809899	2.64793	0.753992	9.68576	0.470425	6.06503	0.807349	7.8825
0.807909	2.64816	0.482679	5.87185	0.808213	2.64812	0.755386	9.62223	0.472184	6.03644	0.806914	7.92926
0.806222	2.64835	0.484392	5.84583	0.806526	2.64831	0.756776	9.55971	0.473937	6.00825	0.806504	7.97687
0.804534	2.64853	0.486097	5.82013	0.804839	2.6485	0.758163	9.49819	0.475685	5.98045	0.806117	8.02534
0.802846	2.64872	0.487794	5.79474	0.80315	2.64869	0.759547	9.43763	0.477426	5.95304	0.805754	8.07469
0.801157	2.64891	0.489482	5.76965	0.801461	2.64887	0.760926	9.378	0.47916	5.92599	0.805415	8.12494
0.799467	2.64909	0.491162	5.74483	0.799772	2.64906	0.762302	9.31929	0.480888	5.89929	0.8051	8.17609
0.797777	2.64927	0.492833	5.7203	0.798081	2.64924	0.763674	9.26147	0.482609	5.87293	0.804808	8.22818
0.796086	2.64945	0.494495	5.69603	0.79639	2.64942	0.765042	9.20452	0.484322	5.8469	0.804539	8.28121
0.794394	2.64963	0.496147	5.67202	0.794699	2.6496	0.766406	9.14841	0.486027	5.82119	0.804293	8.3352
0.792702	2.64981	0.49779	5.64826	0.793007	2.64978	0.767765	9.09313	0.487724	5.79578	0.80407	8.39017
0.791009	2.64999	0.499422	5.62473	0.791314	2.64996	0.769119	9.03864	0.489413	5.77067	0.80387	8.44614
0.789316	2.65016	0.501044	5.60144	0.789621	2.65013	0.770469	8.98494	0.491093	5.74585	0.803692	8.50313
0.787622	2.65034	0.502655	5.57837	0.787927	2.65031	0.771813	8.93199	0.492764	5.72131	0.803536	8.56116
0.785927	2.65051	0.504256	5.55551	0.786233	2.65048	0.773153	8.87979	0.494427	5.69703	0.803403	8.62024
0.784233	2.65069	0.505845	5.53286	0.784538	2.65066	0.774487	8.82832	0.496079	5.67301	0.803291	8.6804
0.782537	2.65086	0.507423	5.51041	0.782843	2.65083	0.775816	8.77755	0.497722	5.64923	0.803201	8.74166
0.780841	2.65103	0.508989	5.48815	0.781147	2.651	0.777139	8.72747	0.499355	5.6257	0.803132	8.80404
0.779145	2.6512	0.510543	5.46608	0.779451	2.65117	0.778456	8.67806	0.500977	5.60239	0.803085	8.86756
0.777448	2.65137	0.512085	5.44419	0.777754	2.65134	0.779768	8.6293	0.502589	5.57931	0.803058	8.93225
0.775751	2.65154	0.513614	5.42247	0.776057	2.65151	0.781073	8.58118	0.50419	5.55645	0.803052	8.99812
0.774053	2.65171	0.515131	5.40092	0.774359	2.65168	0.782372	8.53369	0.50578	5.53379	0.803067	9.0652
0.772355	2.65188	0.516635	5.37953	0.772661	2.65185	0.783665	8.48681	0.507358	5.51133	0.803102	9.13352
0.770656	2.65204	0.518125	5.35829	0.770963	2.65201	0.784952	8.44052	0.508925	5.48907	0.803157	9.2031
0.768958	2.65221	0.519603	5.3372	0.769264	2.65218	0.786231	8.39481	0.510479	5.46699	0.803232	9.27397
0.767258	2.65238	0.521066	5.31626	0.767565	2.65235	0.787504	8.34966	0.512022	5.44509	0.803327	9.34615
0.765558	2.65254	0.522516	5.29545	0.765865	2.65251	0.78877	8.30507	0.513552	5.42336	0.803441	9.41968
0.763858	2.65271	0.523951	5.27478	0.764165	2.65268	0.790028	8.26102	0.515069	5.4018	0.803574	9.49457
0.762158	2.65287	0.525372	5.25424	0.762465	2.65284	0.79128	8.2175	0.516573	5.38041	0.803726	9.57087
0.760457	2.65303	0.526779	5.23382	0.760764	2.653	0.792524	8.17449	0.518064	5.35916	0.803897	9.6486
0.758756	2.6532	0.528171	5.21353	0.759063	2.65317	0.79376	8.13198	0.519542	5.33807	0.804086	9.72779
0.757054	2.65336	0.529548	5.19335	0.757361	2.65333	0.794989	8.08997	0.521006	5.31712	0.804293	9.80847
0.755353	2.65352	0.53091	5.17328	0.755659	2.65349	0.79621	8.04843	0.522456	5.29631	0.804518	9.89069
0.75365	2.65368	0.532256	5.15332	0.753957	2.65365	0.797422	8.00737	0.523892	5.27563	0.804762	9.97446
0.751948	2.65385	0.533588	5.13347	0.752255	2.65382	0.798627	7.96676	0.525314	5.25509	0.805022	10.0598
0.750245	2.65401	0.534904	5.11372	0.750552	2.65398	0.799824	7.9266	0.526721	5.23466	0.8053	10.1468
0.748542	2.65417	0.536204	5.09406	0.748849	2.65414	0.801012	7.88688	0.528113	5.21436	0.805595	10.2355
0.746839	2.65433	0.537488	5.0745	0.747146	2.6543	0.802191	7.84759	0.529491	5.19418	0.805907	10.3259
0.745135	2.65449	0.538757	5.05504	0.745443	2.65446	0.803362	7.80871	0.530854	5.17411	0.806193	10.4061
0.743432	2.65465	0.540009	5.03566	0.743739	2.65462	0.804524	7.77025	0.532201	5.15414	0.806446	10.4756
0.741728	2.65481	0.541245	5.01637	0.742035	2.65478	0.805677	7.73219	0.533533	5.13428	0.806662	10.5338
0.740023	2.65497	0.542466	4.99717	0.74033	2.65494	0.806821	7.69452	0.53485	5.11453	0.806837	10.5803
0.738319	2.65513	0.543669	4.97805	0.738626	2.6551	0.807955	7.65723	0.53615	5.09487	0.806969	10.6147
0.736614	2.65529	0.544857	4.95901	0.736921	2.65526	0.809081	7.62032	0.537435	5.07531	0.807091	10.6467
0.734909	2.65545	0.546028	4.94004	0.735216	2.65542	0.810197	7.58377	0.538705	5.05584	0.807177	10.669
0.733204	2.65561	0.547183	4.92116	0.733511	2.65558	0.811303	7.54758	0.539958	5.03646	0.807314	10.7041
0.731498	2.65577	0.548321	4.90235	0.731806	2.65574	0.8124	7.51175	0.541195	5.01717	0.807503	10.7522
0.729793	2.65593	0.549443	4.88361	0.7301	2.6559	0.813487	7.47626	0.542415	4.99796	0.807747	10.8137
0.728087	2.65609	0.550548	4.86495	0.728394	2.65606	0.814564	7.4411	0.54362	4.97883	0.80805	10.8891
0.726381	2.65625	0.551637	4.84635	0.726689	2.65622	0.815631	7.40628	0.544808	4.95979	0.808416	10.979
0.724675	2.65641	0.552709	4.82783	0.724982	2.65639	0.816688	7.37178	0.54598	4.94082	0.80885	11.0841
0.722969	2.65658	0.553765	4.80938	0.723276	2.65655	0.817735	7.33759	0.547135	4.92193	0.809299	11.1913
0.721262	2.65674	0.554804	4.79099	0.72157	2.65671	0.818772	7.30372	0.548274	4.90312	0.809764	11.3006
0.719556	2.6569	0.555827	4.77268	0.719863	2.65687	0.819798	7.27014	0.549397	4.88438	0.810242	11.4122
0.717849	2.65706	0.556834	4.75443	0.718157	2.65703	0.820814	7.23687	0.550503	4.86572	0.810735	11.5261
0.716142	2.65722	0.557825	4.73624	0.71645	2.65719	0.821819	7.20389	0.551592	4.84712	0.811242	11.6424
0.714435	2.65738	0.558799	4.71812	0.714743	2.65735	0.822813	7.17119	0.552665	4.82859	0.811763	11.7611
0.712728	2.65755	0.559757	4.70007	0.713036	2.65752	0.823797	7.13878	0.553721	4.81014	0.812298	11.8822
0.711021	2.65771	0.5607	4.68208	0.711328	2.65768	0.82477	7.10664	0.554762	4.79175	0.812847	12.0059
0.709313	2.65787	0.561627	4.66416	0.709621	2.65784	0.825732	7.07477	0.555785	4.77343	0.813408	12.1323
0.707606	2.65804	0.562538	4.64631	0.707914	2.65801	0.826684	7.04316	0.556793	4.75518	0.813983	12.2614
0.705898	2.6582	0.563433	4.62852	0.706206	2.65817	0.827624	7.01182	0.557784	4.73699	0.814571	12.3932
0.704191	2.65836	0.564313	4.61079	0.704499	2.65833	0.828553	6.98072	0.558759	4.71887	0.815172	12.5279
0.702483	2.65853	0.565178	4.59313	0.702791	2.6585	0.829471	6.94988	0.559718	4.70081	0.815785	12.6656
0.700775	2.6587	0.566027	4.57554	0.701083	2.65867	0.830378	6.91929	0.560661	4.68283	0.816411	12.8063
0.699067	2.65886	0.566862	4.55802	0.699375	2.65883	0.831273	6.88893	0.561589	4.6649	0.817049	12.9501
0.69736	2.65903	0.567682	4.54056	0.697668	2.659	0.832158	6.85881	0.5625	4.64704	0.817699	13.0972
0.695652	2.6592	0.568488	4.52317	0.69596	2.65917	0.833031	6.82893	0.563396	4.62925	0.818361	13.2476
0.693944	2.65937	0.569279	4.50584	0.694252	2.65933	0.833892	6.79927	0.564277	4.61152	0.819034	13.4014
0.692236	2.65953	0.570056	4.48859	0.692544	2.6595	0.834742	6.76984	0.565142	4.59386	0.819719	13.5588
0.690528	2.6597	0.570819	4.4714	0.690836	2.65967	0.835581	6.74062	0.565993	4.57627	0.820416	13.7198
0.68882	2.65987	0.571569	4.45428	0.689128	2.65984	0.836409	6.71163	0.566828	4.55874	0.821123	13.8846
