Sym0		Asym0		Sym1		Sym2		Sym3		Asym1		Asym2		Asym3		Asym4	
476  Points		492  Points		242  Points		146  Points		129  Points		394  Points		2  Points		165  Points		129  Points	
Freq (MHz)	Vph (m/ms)	Freq (MHz)	Vph (m/ms)	Freq (MHz)	Vph (m/ms)	Freq (MHz)	Vph (m/ms)	Freq (MHz)	Vph (m/ms)	Freq (MHz)	Vph (m/ms)	Freq (MHz)	Vph (m/ms)	Freq (MHz)	Vph (m/ms)	Freq (MHz)	Vph (m/ms)
0.00567202	7.32826	0.000472977	0.22356	0.279553	331.965	0.394754	766.469	0.559026	1207.14	0.139812	260.347	-1.55354e-008	8.41306	0.419276	831.527	0.698775	1862.06
0.0124985	7.32753	0.000974611	0.319822	0.279705	157.686	0.394835	272.916	0.559096	400.845	0.140186	95.4478	9.94741e-006	0.0324945	0.419368	292.055	0.698819	534.688
0.0193219	7.32618	0.00164678	0.413863	0.279965	103.48	0.394993	166.074	0.559238	240.378	0.140903	58.6996			0.419549	177.203	0.69891	312.2
0.0261409	7.32427	0.00248041	0.505099	0.280332	77.0735	0.395229	119.4	0.559451	171.706	0.141957	42.6029			0.419818	127.244	0.69905	220.496
0.0329535	7.32175	0.00346515	0.5931	0.280805	61.4602	0.395542	93.2484	0.559734	133.592	0.143339	33.6176			0.420175	99.3086	0.699238	170.461
0.0397584	7.31865	0.00458954	0.677509	0.281384	51.1552	0.395934	76.5311	0.560088	109.358	0.145036	27.9156			0.42062	81.473	0.699474	138.957
0.0465534	7.31493	0.00584148	0.75806	0.282066	43.8516	0.396406	64.9292	0.560512	92.5966	0.147034	23.9969			0.421153	69.105	0.699758	117.302
0.0533372	7.31061	0.00720904	0.834619	0.282851	38.41	0.396957	56.4109	0.561006	80.3163	0.149318	21.1532			0.421772	60.0295	0.70009	101.504
0.0601076	7.30565	0.00868008	0.907084	0.283735	34.2028	0.397591	49.8948	0.561571	70.9353	0.151872	19.0064			0.422478	53.09	0.700469	89.473
0.0668628	7.30003	0.0102433	0.97547	0.284718	30.8559	0.398307	44.7521	0.562205	63.5378	0.15468	17.3364			0.42327	47.6147	0.700896	80.0061
0.0736007	7.29374	0.0118879	1.03983	0.285798	28.1323	0.399107	40.5927	0.562908	57.5568	0.157726	16.0063			0.424147	43.187	0.70137	72.3642
0.0803192	7.28675	0.013604	1.10026	0.286971	25.8747	0.399993	37.1613	0.563681	52.6227	0.160992	14.9265			0.425109	39.5344	0.701891	66.0671
0.0870162	7.27905	0.0153821	1.1569	0.288235	23.9747	0.400965	34.2841	0.564522	48.4841	0.164464	14.0359			0.426154	36.4715	0.70246	60.7895
0.093689	7.27059	0.0172144	1.20992	0.289589	22.3549	0.402027	31.8385	0.565431	44.9642	0.168125	13.2915			0.427282	33.8675	0.703075	56.3032
0.100335	7.26135	0.0190932	1.2595	0.291029	20.9587	0.403179	29.7357	0.566408	41.9349	0.171963	12.6623			0.428491	31.6277	0.703737	52.4433
0.106952	7.2513	0.021012	1.30582	0.292554	19.7438	0.404424	27.9096	0.567452	39.3012	0.175963	12.125			0.429782	29.6818	0.704445	49.0879
0.113537	7.24038	0.022965	1.34907	0.294162	18.6778	0.405762	26.3104	0.568563	36.9912	0.180114	11.6623			0.431152	27.9763	0.705199	46.1445
0.120087	7.22857	0.0249472	1.38947	0.295849	17.7358	0.407197	24.8992	0.56974	34.9493	0.184402	11.2606			0.432601	26.4701	0.705999	43.5423
0.126598	7.21582	0.026954	1.42718	0.297615	16.8978	0.40873	23.6458	0.570983	33.1319	0.188817	10.9095			0.434128	25.1308	0.706844	41.2256
0.133067	7.20208	0.0289817	1.4624	0.299457	16.1482	0.410362	22.5261	0.572291	31.5046	0.193349	10.6008			0.435732	23.9329	0.707735	39.1501
0.13949	7.18728	0.030763	1.4912	0.301375	15.4742	0.412097	21.5206	0.573664	30.0395	0.197989	10.3276			0.437411	22.8555	0.70867	37.2804
0.145863	7.17138	0.0322906	1.51443	0.303367	14.8653	0.413935	20.6136	0.5751	28.7138	0.202728	10.0846			0.439164	21.8818	0.70965	35.5877
0.152181	7.15431	0.0335593	1.53279	0.305433	14.3131	0.415877	19.7921	0.5766	27.509	0.207556	9.86751			0.440989	20.998	0.710675	34.0483
0.15844	7.13599	0.0345656	1.54678	0.307573	13.8104	0.417926	19.0451	0.578163	26.4097	0.212468	9.67258			0.442887	20.1925	0.711743	32.6424
0.164635	7.11637	0.0353071	1.55678	0.309787	13.3513	0.420084	18.3637	0.579787	25.4028	0.217455	9.49682			0.444855	19.4558	0.712855	31.3536
0.170759	7.09535	0.0357823	1.56306	0.312076	12.9307	0.42235	17.7403	0.581473	24.4774	0.222512	9.33772			0.446892	18.7796	0.71401	30.1682
0.176808	7.07286	0.0364664	1.57192	0.314442	12.5445	0.424726	17.1682	0.58322	23.6244	0.227632	9.19314			0.448996	18.1572	0.715208	29.0743
0.182774	7.04883	0.0372109	1.58134	0.316887	12.1889	0.427214	16.642	0.585027	22.8358	0.23281	9.06129			0.451167	17.5825	0.716448	28.0619
0.188652	7.02315	0.0382252	1.59379	0.319414	11.8611	0.429813	16.1569	0.586893	22.1047	0.238039	8.94061			0.453403	17.0506	0.717731	27.1223
0.194434	6.99575	0.0395106	1.60899	0.322027	11.5582	0.432524	15.7086	0.588817	21.4254	0.243316	8.82981			0.455703	16.5569	0.719055	26.2482
0.200113	6.96653	0.0410681	1.62657	0.324728	11.278	0.435348	15.2937	0.590799	20.7926	0.248635	8.72775			0.458065	16.0978	0.720422	25.4331
0.205681	6.93542	0.0428992	1.64616	0.327524	11.0186	0.438283	14.9088	0.592839	20.2019	0.253992	8.63344			0.460488	15.6699	0.721829	24.6713
0.21113	6.90234	0.0450048	1.66734	0.33042	10.7782	0.44133	14.5513	0.594935	19.6495	0.258688	8.55692			0.46297	15.2702	0.723277	23.9579
0.216454	6.8672	0.047114	1.68725	0.333419	10.5552	0.444489	14.2187	0.597086	19.1318	0.26271	8.49545			0.465512	14.8963	0.724766	23.2885
0.221644	6.82997	0.0492259	1.70596	0.336528	10.3484	0.447758	13.9087	0.599293	18.6459	0.266047	8.44703			0.46811	14.5458	0.726295	22.6592
0.226692	6.79058	0.05134	1.72357	0.339753	10.1566	0.451136	13.6195	0.601553	18.189	0.268692	8.41018			0.470765	14.2167	0.727863	22.0668
0.231593	6.74902	0.0534555	1.74016	0.343098	9.97868	0.454623	13.3493	0.603867	17.7587	0.270641	8.38386			0.473474	13.9072	0.729472	21.508
0.236338	6.70526	0.055572	1.75581	0.346569	9.8137	0.458216	13.0965	0.606234	17.3528	0.27189	8.36734			0.476236	13.6157	0.731119	20.9802
0.240924	6.65935	0.0576893	1.77058	0.35017	9.66078	0.461915	12.8598	0.608653	16.9695	0.273687	8.34403			0.479052	13.3408	0.732806	20.4811
0.245346	6.6113	0.0598067	1.78454	0.353904	9.51911	0.465718	12.6378	0.611123	16.607	0.275642	8.31925			0.481918	13.0813	0.734531	20.0083
0.2496	6.56121	0.0619241	1.79774	0.357773	9.38792	0.469622	12.4295	0.613644	16.2637	0.278306	8.28647			0.484834	12.8358	0.736294	19.5599
0.253685	6.50916	0.0640414	1.81025	0.361779	9.26649	0.473626	12.2338	0.616215	15.9383	0.28168	8.24642			0.4878	12.6034	0.738096	19.1342
0.257599	6.45528	0.0661582	1.82209	0.365921	9.15413	0.477728	12.0498	0.618835	15.6294	0.285769	8.19996			0.490814	12.3832	0.739936	18.7295
0.261345	6.39972	0.0682745	1.83334	0.370198	9.0502	0.481925	11.8765	0.621504	15.3359	0.290574	8.14803			0.493875	12.1743	0.741814	18.3444
0.264924	6.34266	0.07039	1.84401	0.374608	8.95406	0.486215	11.7133	0.624221	15.0568	0.296098	8.09153			0.496983	11.9758	0.743729	17.9776
0.26834	6.28427	0.0725048	1.85416	0.379146	8.8651	0.490597	11.5594	0.626986	14.7911	0.30163	8.03805			0.500136	11.7872	0.745681	17.6278
0.271598	6.22475	0.0746188	1.86381	0.383201	8.79299	0.495067	11.4142	0.629797	14.5379	0.307167	7.98727			0.503334	11.6077	0.747671	17.2939
0.274704	6.1643	0.0767319	1.873	0.386729	8.73522	0.499623	11.277	0.632654	14.2964	0.312705	7.93894			0.506577	11.4367	0.749698	16.975
0.277664	6.10314	0.0788441	1.88176	0.389694	8.68985	0.504264	11.1473	0.635557	14.0658	0.318242	7.89283			0.509863	11.2738	0.751761	16.67
0.280486	6.04144	0.0809553	1.89012	0.392067	8.65543	0.508986	11.0246	0.638505	13.8456	0.323776	7.84871			0.513192	11.1183	0.753862	16.3782
0.283178	5.97942	0.0830657	1.89811	0.393828	8.63091	0.513787	10.9085	0.641497	13.635	0.329303	7.80639			0.516564	10.97	0.755999	16.0988
0.285747	5.91725	0.085175	1.90573	0.394962	8.61555	0.518665	10.7984	0.644534	13.4335	0.334822	7.7657			0.519978	10.8282	0.758173	15.831
0.2882	5.85509	0.0872834	1.91303	0.396602	8.59392	0.523618	10.6941	0.647614	13.2406	0.340329	7.72646			0.523434	10.6927	0.760383	15.5742
0.290547	5.79311	0.0893908	1.92001	0.398396	8.571	0.528642	10.5951	0.650738	13.0558	0.345822	7.68854			0.526932	10.5631	0.76263	15.3277
0.292794	5.73144	0.0914973	1.9267	0.400855	8.54076	0.533737	10.5011	0.653904	12.8786	0.351299	7.6518			0.530471	10.4391	0.764913	15.091
0.294949	5.67021	0.0936029	1.93311	0.403997	8.50399	0.538899	10.4118	0.657113	12.7086	0.356756	7.61612			0.534052	10.3203	0.767233	14.8635
0.297018	5.60953	0.0957076	1.93926	0.40784	8.4616	0.544126	10.3269	0.660364	12.5454	0.362192	7.58137			0.537673	10.2066	0.769589	14.6448
0.299009	5.54948	0.0978114	1.94517	0.412405	8.41458	0.549416	10.2462	0.663657	12.3887	0.367604	7.54746			0.541337	10.0975	0.771982	14.4345
0.300928	5.49016	0.0999144	1.95085	0.417713	8.36389	0.554767	10.1693	0.666992	12.2381	0.372989	7.51429			0.545041	9.99296	0.774411	14.2319
0.30278	5.43162	0.102017	1.9563	0.423089	8.31638	0.560176	10.096	0.670368	12.0933	0.378346	7.48177			0.548788	9.89266	0.776876	14.0369
0.304572	5.37394	0.104118	1.96155	0.428524	8.27174	0.565641	10.0261	0.673786	11.954	0.383671	7.44981			0.552576	9.79642	0.779378	13.849
0.306307	5.31715	0.106219	1.96661	0.434013	8.22968	0.571161	9.95949	0.677246	11.82	0.388962	7.41834			0.556406	9.70403	0.781916	13.6678
0.307991	5.26129	0.108318	1.97148	0.439548	8.18995	0.576732	9.89586	0.680747	11.691	0.394216	7.38728			0.560278	9.61533	0.78449	13.493
0.309628	5.20639	0.110417	1.97617	0.445123	8.1523	0.582352	9.83507	0.684289	11.5668	0.399431	7.35658			0.564193	9.53013	0.787101	13.3244
0.311223	5.15248	0.112516	1.9807	0.450732	8.11653	0.58802	9.77695	0.687874	11.4471	0.404605	7.32616			0.568151	9.44828	0.789748	13.1616
0.312778	5.09957	0.114614	1.98507	0.45637	8.08245	0.593732	9.72133	0.6915	11.3317	0.409736	7.29597			0.572152	9.36964	0.792432	13.0044
0.314297	5.04766	0.116711	1.98929	0.462031	8.04988	0.599488	9.66808	0.695168	11.2205	0.41482	7.26596			0.576196	9.29406	0.795151	12.8526
0.315783	4.99676	0.118807	1.99337	0.467711	8.01867	0.605283	9.61704	0.69888	11.1133	0.419856	7.23607			0.580283	9.22141	0.797907	12.7058
0.31724	4.94688	0.120903	1.99731	0.473404	7.98868	0.611116	9.56809	0.702634	11.0099	0.424841	7.20627			0.583881	9.16039	0.800699	12.5638
0.31867	4.89802	0.122998	2.00113	0.479108	7.95979	0.616985	9.52108	0.706432	10.9101	0.429772	7.17651			0.586974	9.11	0.803527	12.4265
0.320074	4.85015	0.125093	2.00482	0.484818	7.93187	0.622887	9.47592	0.710275	10.8139	0.434649	7.14676			0.58955	9.06942	0.806391	12.2937
0.321457	4.80329	0.127187	2.00839	0.49053	7.90483	0.628819	9.43247	0.714163	10.721	0.439468	7.11697			0.591599	9.03802	0.809291	12.1651
0.322819	4.7574	0.129281	2.01185	0.496242	7.87858	0.634779	9.39063	0.718098	10.6314	0.444228	7.08712			0.593112	9.0153	0.812227	12.0406
0.324162	4.7125	0.131374	2.01521	0.50195	7.85304	0.640764	9.35029	0.72208	10.5449	0.448927	7.05719			0.594083	9.00093	0.815199	11.92
0.325489	4.66855	0.133467	2.01846	0.50765	7.82812	0.646771	9.31136	0.726111	10.4614	0.453563	7.02714			0.595483	8.98049	0.818206	11.8032
0.3268	4.62555	0.135559	2.02162	0.513342	7.80377	0.652798	9.27374	0.730191	10.3809	0.458134	6.99696			0.59701	8.95857	0.821248	11.69
0.328098	4.58348	0.137651	2.02468	0.519021	7.77992	0.658064	9.24194	0.734324	10.3031	0.462639	6.96663			0.599097	8.92924	0.824325	11.5802
0.329384	4.54232	0.139743	2.02766	0.524687	7.75651	0.662561	9.21552	0.738509	10.2281	0.467076	6.93613			0.60175	8.89292	0.827438	11.4737
0.330659	4.50205	0.141834	2.03055	0.530335	7.7335	0.666284	9.19412	0.74275	10.1558	0.471445	6.90546			0.60498	8.85015	0.830585	11.3705
0.331923	4.46266	0.143924	2.03336	0.535965	7.71084	0.66923	9.17747	0.747048	10.0861	0.475743	6.87461			0.608801	8.80149	0.833766	11.2703
0.33318	4.42413	0.146015	2.03609	0.541575	7.68849	0.671398	9.16537	0.751405	10.0189	0.479971	6.84356			0.613225	8.74763	0.836982	11.173
0.334428	4.38644	0.148104	2.03874	0.547162	7.66641	0.672786	9.15769	0.755824	9.95417	0.484127	6.81233			0.617692	8.69578	0.840231	11.0786
0.33567	4.34958	0.150194	2.04133	0.552726	7.64456	0.674782	9.14674	0.760307	9.89183	0.488211	6.7809			0.622201	8.64586	0.843514	10.9869
0.336905	4.31351	0.152283	2.04384	0.558263	7.62292	0.676951	9.13495	0.764857	9.83185	0.492223	6.74928			0.626752	8.59778	0.84683	10.8979
0.337978	4.28273	0.154372	2.04629	0.563773	7.60146	0.679902	9.11909	0.769477	9.77418	0.496162	6.71748			0.631343	8.55147	0.850179	10.8114
0.33889	4.25695	0.156461	2.04867	0.569255	7.58014	0.683635	9.09931	0.774169	9.71876	0.500029	6.6855			0.635974	8.50684	0.853561	10.7273
0.339642	4.23594	0.158549	2.05099	0.574706	7.55895	0.688149	9.07578	0.778936	9.66556	0.503824	6.65335			0.640644	8.46383	0.856975	10.6455
0.340236	4.21953	0.160637	2.05326	0.580126	7.53787	0.693442	9.04869	0.783782	9.61453	0.507546	6.62104			0.645351	8.42234	0.86042	10.566
0.340672	4.20758	0.162725	2.05547	0.585513	7.51686	0.699509	9.01822	0.788709	9.56564	0.511196	6.58859			0.650094	8.38232	0.863897	10.4887
0.340951	4.19998	0.164812	2.05762	0.590866	7.49592	0.705565	8.98833	0.79307	9.52475	0.514776	6.556			0.654872	8.34369	0.867405	10.4135
0.341352	4.18912	0.166899	2.05972	0.596184	7.47503	0.711607	8.95897	0.79684	9.49113	0.518286	6.52329			0.659683	8.30639	0.870944	10.3403
0.341787	4.1774	0.168986	2.06177	0.601465	7.45417	0.717631	8.93005	0.799994	9.46418	0.521726	6.49047			0.664527	8.27035	0.874512	10.2691
0.342379	4.16161	0.171073	2.06377	0.606709	7.43333	0.723631	8.90152	0.802511	9.4434	0.525098	6.45757			0.6694	8.23551	0.878111	10.1998
0.343126	4.14188	0.173159	2.06572	0.611914	7.41249	0.729606	8.87332	0.804375	9.42842	0.528402	6.4246			0.674302	8.2018	0.881739	10.1323
0.344029	4.11837	0.175246	2.06763	0.61708	7.39164	0.73555	8.84539	0.805575	9.41897	0.531641	6.39157			0.67923	8.16917	0.885395	10.0665
0.345087	4.09127	0.177332	2.06949	0.622205	7.37078	0.741461	8.81768	0.807307	9.40556	0.534814	6.35851			0.684183	8.13755	0.889081	10.0025
0.3463	4.0608	0.179418	2.07131	0.627289	7.34988	0.747336	8.79014	0.809201	9.39122	0.537925	6.32542			0.68916	8.10691	0.892794	9.94004
0.347512	4.03098	0.181503	2.07309	0.632331	7.32894	0.75317	8.76274	0.811796	9.37211	0.540973	6.29233			0.694158	8.07717	0.896535	9.87921
0.348725	4.00179	0.183589	2.07483	0.637329	7.30796	0.758963	8.73544	0.815109	9.34859	0.543961	6.25925			0.699175	8.0483	0.900304	9.81992
0.349937	3.97323	0.185674	2.07653	0.642283	7.28692	0.764711	8.70822	0.819162	9.32108	0.54689	6.2262			0.70421	8.02024	0.90361	9.76946
0.351151	3.94527	0.187759	2.07819	0.647193	7.26582	0.770414	8.68106	0.823982	9.2901	0.549761	6.19319			0.70926	7.99295	0.906444	9.72731
0.352365	3.9179	0.189844	2.07982	0.652057	7.24465	0.776071	8.65395	0.829599	9.2562	0.552576	6.16025			0.714325	7.96638	0.908798	9.69305
0.35358	3.8911	0.191928	2.08141	0.656875	7.2234	0.781682	8.62689	0.835309	9.22402	0.555336	6.12738			0.719401	7.94048	0.910667	9.66632
0.354797	3.86486	0.194013	2.08297	0.661646	7.20208	0.787247	8.59988	0.841109	9.19348	0.558043	6.0946			0.724487	7.91523	0.912045	9.64688
0.356015	3.83917	0.196097	2.0845	0.66637	7.18068	0.792766	8.57292	0.846998	9.16453	0.560699	6.06192			0.729582	7.89057	0.912928	9.63452
0.357236	3.81402	0.198181	2.086	0.671046	7.1592	0.798243	8.54604	0.852974	9.13707	0.563305	6.02936			0.734683	7.86648	0.914201	9.61688
0.358459	3.78938	0.200266	2.08746	0.675674	7.13762	0.803677	8.51924	0.859033	9.11105	0.565862	5.99693			0.739789	7.84291	0.915587	9.59787
0.359684	3.76525	0.202349	2.0889	0.680254	7.11596	0.809072	8.49256	0.865173	9.08638	0.568372	5.96464			0.744898	7.81983	0.917478	9.57228
0.360912	3.74161	0.204433	2.0903	0.684784	7.09421	0.814431	8.46601	0.87139	9.06299	0.570837	5.9325			0.750009	7.79721	0.919878	9.54035
0.362143	3.71845	0.206517	2.09168	0.689265	7.07236	0.819755	8.43961	0.877681	9.04081	0.573258	5.90052			0.755118	7.77503	0.922792	9.50236
0.363377	3.69577	0.2086	2.09303	0.693696	7.05043	0.825047	8.4134	0.884041	9.01976	0.575636	5.86871			0.760226	7.75324	0.926228	9.45867
0.364614	3.67354	0.210684	2.09436	0.698077	7.02841	0.83031	8.38738	0.890466	8.99977	0.577972	5.83709			0.76533	7.73183	0.930194	9.40964
0.365855	3.65176	0.212767	2.09566	0.702409	7.00629	0.835548	8.36159	0.896954	8.98077	0.580269	5.80566			0.770429	7.71076	0.934185	9.36178
0.367099	3.63042	0.21485	2.09693	0.70669	6.98409	0.840762	8.33605	0.903499	8.9627	0.582527	5.77442			0.775521	7.69002	0.938199	9.31503
0.368347	3.6095	0.216933	2.09818	0.710921	6.96181	0.845955	8.31077	0.910099	8.94549	0.584748	5.74339			0.780605	7.66957	0.942237	9.26937
0.369598	3.589	0.219016	2.09941	0.715103	6.93944	0.85113	8.28577	0.91675	8.92909	0.586933	5.71258			0.785679	7.64941	0.946298	9.22477
0.370853	3.5689	0.221099	2.10061	0.719234	6.91699	0.856289	8.26106	0.923448	8.91344	0.589083	5.68198			0.790742	7.62949	0.950382	9.1812
0.372113	3.54919	0.223181	2.10179	0.723315	6.89446	0.861433	8.23665	0.93019	8.89849	0.591199	5.6516			0.795793	7.60981	0.954488	9.13862
0.373376	3.52987	0.225264	2.10296	0.727347	6.87187	0.866565	8.21255	0.936973	8.8842	0.593283	5.62145			0.800829	7.59035	0.958618	9.097
0.374643	3.51093	0.227346	2.10409	0.731329	6.8492	0.871685	8.18878	0.943794	8.87051	0.595335	5.59154			0.80585	7.57108	0.962769	9.05633
0.375915	3.49235	0.229428	2.10521	0.735261	6.82646	0.876796	8.16533	0.95065	8.85738	0.597358	5.56186			0.810855	7.552	0.966942	9.01656
0.377191	3.47414	0.231511	2.10631	0.739145	6.80367	0.881899	8.1422	0.957538	8.84478	0.599351	5.53243			0.815842	7.53308	0.971138	8.97769
0.378471	3.45627	0.233593	2.10739	0.74298	6.78082	0.886995	8.1194	0.964457	8.83267	0.601316	5.50324			0.82081	7.51431	0.975354	8.93967
0.379756	3.43874	0.235675	2.10845	0.746767	6.75791	0.892084	8.09693	0.971403	8.82102	0.603254	5.47429			0.825758	7.49567	0.979592	8.90249
0.381045	3.42155	0.237757	2.1095	0.750506	6.73496	0.897167	8.07479	0.978374	8.80979	0.605165	5.4456			0.830685	7.47716	0.983851	8.86612
0.382338	3.40468	0.239839	2.11052	0.754197	6.71197	0.902246	8.05297	0.985368	8.79895	0.607052	5.41716			0.83559	7.45875	0.988131	8.83055
0.383636	3.38813	0.24192	2.11153	0.757842	6.68894	0.907319	8.03146	0.992383	8.78848	0.608914	5.38897			0.840471	7.44045	0.992431	8.79574
0.384939	3.37189	0.244002	2.11252	0.76144	6.66588	0.912388	8.01027	0.999417	8.77834	0.610753	5.36104			0.845329	7.42223	0.996752	8.76169
0.386246	3.35595	0.246084	2.11349	0.764992	6.6428	0.917453	7.98938	1.00647	8.76852	0.612569	5.33337			0.85016	7.40408	1.00109	8.72836
0.387558	3.34031	0.248165	2.11445	0.768499	6.61969	0.922513	7.96879			0.614364	5.30595			0.854966	7.38601		
0.388875	3.32495	0.250246	2.11539	0.77196	6.59657	0.927569	7.9485			0.616137	5.27879			0.859745	7.36799		
0.390196	3.30988	0.252328	2.11632	0.775378	6.57344	0.93262	7.92848			0.617891	5.25189			0.864496	7.35001		
0.391522	3.29509	0.254409	2.11723	0.778752	6.5503	0.937667	7.90875			0.619624	5.22525			0.869218	7.33208		
0.392852	3.28056	0.25649	2.11812	0.782082	6.52717	0.942709	7.88927			0.62134	5.19887			0.873911	7.31419		
0.394188	3.2663	0.258571	2.11901	0.785371	6.50404	0.947745	7.87006			0.623037	5.17274			0.878574	7.29632		
0.395528	3.2523	0.260652	2.11987	0.788617	6.48092	0.952776	7.85109			0.624717	5.14688			0.883206	7.27847		
0.396873	3.23855	0.262733	2.12073	0.791823	6.45781	0.957801	7.83236			0.62638	5.12127			0.887807	7.26064		
0.398222	3.22504	0.264814	2.12157	0.794987	6.43473	0.962819	7.81387			0.628027	5.09592			0.892376	7.24282		
0.399577	3.21178	0.266895	2.1224	0.798112	6.41167	0.96783	7.79559			0.629659	5.07082			0.896913	7.225		
0.400936	3.19875	0.268976	2.12321	0.801198	6.38864	0.972833	7.77752			0.631276	5.04598			0.901417	7.20719		
0.4023	3.18595	0.271057	2.12402	0.804245	6.36565	0.977828	7.75966			0.632878	5.02139			0.905887	7.18938		
0.403669	3.17337	0.273137	2.12481	0.807254	6.34269	0.982814	7.74198			0.634467	4.99706			0.910323	7.17156		
0.405042	3.16101	0.275218	2.12559	0.810226	6.31978	0.987791	7.72449			0.636043	4.97298			0.914726	7.15373		
0.40642	3.14887	0.277298	2.12636	0.813161	6.29691	0.992757	7.70718			0.637606	4.94915			0.919094	7.1359		
0.407803	3.13694	0.279379	2.12711	0.816061	6.2741	0.997713	7.69003			0.639156	4.92556			0.923427	7.11805		
0.409191	3.12522	0.281459	2.12786	0.818925	6.25134	1.00266	7.67303			0.640695	4.90222			0.927725	7.10019		
0.410583	3.1137	0.283539	2.12859	0.821754	6.22864					0.642223	4.87913			0.931988	7.08231		
