Sym0		Asym0		Sym1		Sym2		Sym3		Sym4		Asym1		Asym2		Asym3		Asym4	
418  Points		528  Points		418  Points		398  Points		347  Points		249  Points		451  Points		394  Points		340  Points		214  Points	
Freq (MHz)	Vgr (m/ms)	Freq (MHz)	Vgr (m/ms)	Freq (MHz)	Vgr (m/ms)	Freq (MHz)	Vgr (m/ms)	Freq (MHz)	Vgr (m/ms)	Freq (MHz)	Vgr (m/ms)	Freq (MHz)	Vgr (m/ms)	Freq (MHz)	Vgr (m/ms)	Freq (MHz)	Vgr (m/ms)	Freq (MHz)	Vgr (m/ms)
0.279512	0.0145965	7.33846e-008	0.0397432	0.27951	0.012534	0.441468	0.00905031	0.559017	0.00901528	0.838526	0.0037972	0.139764	0.0752283	0.419268	0.0179715	0.698772	0.00737097	0.882937	0.00844927
0.279525	0.0203956	3.7102e-005	0.0757498	0.279522	0.018339	0.441476	0.015394	0.559026	0.0150777	0.838529	0.00698201	0.139834	0.111751	0.419284	0.0243731	0.698779	0.010667	0.882945	0.0115766
0.27955	0.0320067	0.000141225	0.147588	0.279544	0.0299679	0.441497	0.0279798	0.559045	0.027259	0.838539	0.013387	0.139972	0.184552	0.419313	0.0372057	0.698792	0.0172591	0.882959	0.0178093
0.279585	0.0436566	0.000312115	0.218973	0.279578	0.0415802	0.441529	0.0405537	0.559077	0.0394636	0.838554	0.019825	0.140178	0.256839	0.419354	0.0500535	0.698811	0.0238514	0.882978	0.0240491
0.279631	0.0552377	0.000549258	0.289748	0.279622	0.0531594	0.441572	0.053177	0.559119	0.0516411	0.838575	0.0262557	0.140451	0.328464	0.419406	0.0628586	0.698837	0.0304444	0.883004	0.030303
0.279688	0.0668277	0.000852029	0.359703	0.279677	0.0647453	0.441628	0.0657528	0.559173	0.0638381	0.838603	0.0326717	0.14079	0.39913	0.419471	0.0756513	0.698868	0.0370386	0.883035	0.036512
0.279755	0.0784354	0.00121952	0.428678	0.279743	0.076345	0.441695	0.0783068	0.559238	0.0760006	0.838636	0.0390584	0.141194	0.468686	0.419547	0.0884926	0.698906	0.0436351	0.883072	0.0427776
0.279834	0.0900052	0.00165082	0.496461	0.279819	0.0879721	0.441774	0.0908904	0.559314	0.0881674	0.838676	0.0454597	0.141663	0.537044	0.419636	0.101285	0.698949	0.0502363	0.883115	0.0490101
0.279923	0.101646	0.00214462	0.562887	0.279907	0.0995807	0.441864	0.10346	0.559402	0.100343	0.838721	0.0518903	0.142195	0.603962	0.419736	0.114051	0.698999	0.0568468	0.883163	0.0552495
0.280023	0.113208	0.0026997	0.627917	0.280005	0.111153	0.441966	0.116001	0.559501	0.112462	0.838772	0.0583062	0.142789	0.669388	0.419848	0.126841	0.699055	0.063403	0.883218	0.0615027
0.280134	0.124761	0.00331468	0.691326	0.280114	0.122724	0.44208	0.128559	0.559612	0.124616	0.83883	0.0646927	0.143442	0.733225	0.419972	0.139602	0.699117	0.0699967	0.883278	0.0677102
0.280256	0.136367	0.00398791	0.753032	0.280233	0.134294	0.442206	0.141077	0.559734	0.136764	0.838893	0.0710935	0.144155	0.795273	0.420108	0.15238	0.699186	0.0765923	0.883344	0.0739728
0.280388	0.147933	0.00471787	0.813016	0.280364	0.145863	0.442343	0.153589	0.559867	0.148904	0.838962	0.0775231	0.144924	0.855502	0.420256	0.165119	0.69926	0.0831918	0.883416	0.0801994
0.280531	0.159494	0.00550288	0.871169	0.280505	0.157427	0.442492	0.166089	0.560011	0.161025	0.839037	0.083937	0.145749	0.913923	0.420416	0.177852	0.699341	0.0897991	0.883493	0.0864269
0.280685	0.171043	0.0063412	0.927415	0.280657	0.168985	0.442653	0.178564	0.560167	0.173108	0.839119	0.0903195	0.146627	0.970488	0.420588	0.190575	0.699428	0.0963484	0.883577	0.0926563
0.28085	0.18257	0.00723101	0.981753	0.28082	0.180527	0.442825	0.191063	0.560334	0.185191	0.839206	0.0967124	0.147435	1.01826	0.420771	0.203277	0.69952	0.102929	0.883666	0.0988895
0.281026	0.194123	0.00817059	1.03418	0.280994	0.192039	0.443009	0.203537	0.560512	0.19727	0.839299	0.103126	0.148153	1.05776	0.420967	0.21601	0.699619	0.109497	0.883761	0.10513
0.281212	0.205658	0.00915809	1.08461	0.281178	0.203563	0.443204	0.21596	0.560701	0.209344	0.839398	0.109508	0.148768	1.08961	0.421174	0.228659	0.699724	0.116116	0.883862	0.111313
0.281409	0.217156	0.0101916	1.13311	0.281373	0.215114	0.443411	0.228355	0.560902	0.221407	0.839503	0.115901	0.149267	1.11432	0.421393	0.241286	0.699836	0.122688	0.883968	0.117526
0.281617	0.228653	0.0112695	1.17972	0.281579	0.226642	0.44363	0.240767	0.561114	0.233449	0.839614	0.122313	0.149641	1.13221	0.421623	0.253941	0.699953	0.12924	0.884081	0.123801
0.281835	0.240147	0.0123899	1.22445	0.281795	0.238128	0.44386	0.253139	0.561337	0.245446	0.839731	0.128694	0.149883	1.14352	0.421866	0.26658	0.700077	0.135827	0.884199	0.129977
0.282064	0.251637	0.0135512	1.26726	0.282022	0.249599	0.444101	0.265507	0.561571	0.25743	0.839854	0.135082	0.150235	1.15953	0.42212	0.279189	0.700206	0.142408	0.884323	0.136177
0.282304	0.263117	0.0147513	1.30827	0.28226	0.261042	0.444354	0.277864	0.561817	0.269385	0.839983	0.141485	0.150624	1.17666	0.422386	0.291734	0.700342	0.148978	0.884453	0.142426
0.282554	0.274579	0.015989	1.34752	0.282509	0.272503	0.444619	0.290126	0.562073	0.281357	0.840117	0.147848	0.151162	1.19962	0.422664	0.304301	0.700484	0.155526	0.884588	0.148624
0.282815	0.286004	0.0172623	1.38501	0.282768	0.283999	0.444895	0.30242	0.562341	0.29329	0.840258	0.154201	0.151857	1.22805	0.422953	0.316837	0.700632	0.162104	0.88473	0.154795
0.283087	0.297427	0.0185698	1.42086	0.283038	0.295419	0.445183	0.314702	0.56262	0.305217	0.840405	0.160608	0.152718	1.26141	0.423254	0.329312	0.700786	0.168668	0.884877	0.160984
0.28337	0.308848	0.0199099	1.45507	0.283319	0.306833	0.445481	0.326889	0.56291	0.317133	0.840557	0.166977	0.153758	1.29929	0.423567	0.34181	0.700946	0.175205	0.88503	0.16721
0.283663	0.320263	0.0212812	1.48775	0.28361	0.318235	0.445792	0.339106	0.563211	0.328953	0.840716	0.173343	0.154989	1.3411	0.423891	0.354282	0.701112	0.18176	0.885188	0.173436
0.283966	0.331669	0.0226822	1.5189	0.283912	0.329613	0.446113	0.351306	0.563523	0.3408	0.84088	0.179704	0.156257	1.38115	0.424227	0.366701	0.701285	0.188352	0.885353	0.179589
0.284281	0.343055	0.0241115	1.54861	0.284224	0.341016	0.446446	0.363403	0.563846	0.352629	0.841051	0.186052	0.157562	1.41949	0.424574	0.379087	0.701463	0.19487	0.885523	0.185743
0.284606	0.3544	0.0255678	1.57698	0.284505	0.350934	0.446791	0.375511	0.56418	0.364423	0.841227	0.19245	0.158902	1.45617	0.424933	0.391483	0.701648	0.201388	0.885699	0.191973
0.284941	0.365739	0.02705	1.60398	0.284751	0.359343	0.447146	0.387642	0.564525	0.376218	0.841409	0.1988	0.160276	1.49128	0.425304	0.403823	0.701838	0.207979	0.885881	0.198133
0.285287	0.377063	0.0285567	1.62971	0.284958	0.36634	0.447513	0.399673	0.564881	0.387944	0.841597	0.205129	0.161681	1.5248	0.425686	0.416125	0.702035	0.214496	0.886068	0.204301
0.285644	0.38836	0.0300868	1.65428	0.285125	0.371775	0.447891	0.411649	0.565248	0.399676	0.841791	0.211487	0.163117	1.55679	0.426079	0.428425	0.702238	0.221011	0.886261	0.210485
0.286011	0.399674	0.0316392	1.67772	0.28525	0.375811	0.44828	0.423664	0.565625	0.411348	0.841991	0.217831	0.164582	1.58737	0.426484	0.440647	0.702447	0.227595	0.88646	0.216626
0.286389	0.410949	0.033213	1.69998	0.28533	0.378438	0.44868	0.435608	0.566014	0.422974	0.842197	0.224148	0.166075	1.61661	0.4269	0.452859	0.702662	0.234099	0.886665	0.222757
0.286777	0.42222	0.034807	1.72122	0.285447	0.3822	0.449092	0.447485	0.566414	0.434654	0.842409	0.230484	0.167594	1.64452	0.427328	0.465052	0.702883	0.240587	0.886875	0.22894
0.287175	0.433482	0.0364203	1.74151	0.285574	0.386273	0.449514	0.459375	0.566824	0.446221	0.842627	0.236855	0.169139	1.67115	0.427767	0.477205	0.703111	0.247119	0.887092	0.23508
0.287584	0.444654	0.0380521	1.76084	0.28575	0.391708	0.449948	0.471214	0.567245	0.457782	0.842851	0.243153	0.170708	1.69662	0.428217	0.489355	0.703344	0.253664	0.887313	0.241207
0.288004	0.455865	0.0397014	1.77922	0.285977	0.398616	0.450392	0.482956	0.567677	0.469334	0.84308	0.249449	0.172301	1.72093	0.428679	0.501422	0.703583	0.260163	0.887541	0.247382
0.288434	0.46708	0.0413675	1.7968	0.286255	0.407025	0.450848	0.494719	0.56812	0.48079	0.843315	0.255816	0.173915	1.7441	0.429151	0.513471	0.703829	0.266642	0.887774	0.253508
0.288874	0.478233	0.0430496	1.81356	0.28659	0.41684	0.451314	0.506455	0.568573	0.492278	0.843557	0.262105	0.175551	1.76627	0.429635	0.525484	0.70408	0.273154	0.888014	0.259606
0.289325	0.489405	0.0447468	1.8295	0.286983	0.428068	0.451791	0.518133	0.569037	0.503754	0.843804	0.268385	0.177206	1.78747	0.430131	0.537427	0.704338	0.279661	0.888258	0.265724
0.289786	0.500543	0.0464586	1.84476	0.287388	0.439321	0.452279	0.529771	0.569512	0.515135	0.844057	0.274717	0.178881	1.8077	0.430637	0.549372	0.704601	0.286155	0.888509	0.27188
0.290258	0.511613	0.0481843	1.85931	0.287802	0.450514	0.452778	0.541329	0.569997	0.52647	0.844316	0.281011	0.180575	1.82704	0.431154	0.561252	0.704871	0.292624	0.888765	0.277966
0.29074	0.522694	0.0499233	1.87318	0.288227	0.461714	0.453288	0.552873	0.570493	0.537788	0.84458	0.2873	0.182286	1.84554	0.431614	0.571607	0.705147	0.299118	0.889027	0.284059
0.291232	0.533795	0.0516748	1.88642	0.288662	0.472917	0.453809	0.564388	0.570999	0.549071	0.844851	0.293578	0.184014	1.86321	0.432013	0.580414	0.705428	0.305588	0.889294	0.290167
0.291734	0.544866	0.0534384	1.89906	0.289108	0.484048	0.45434	0.575846	0.571516	0.560357	0.845127	0.299837	0.185758	1.8801	0.432347	0.58761	0.705716	0.312081	0.889567	0.296231
0.292247	0.555874	0.0552135	1.91115	0.289564	0.49518	0.454811	0.585794	0.572043	0.571578	0.84541	0.306127	0.187517	1.89627	0.432614	0.593358	0.70601	0.318549	0.889846	0.302353
0.29277	0.566904	0.0569996	1.92274	0.290031	0.506349	0.45522	0.594255	0.572581	0.58274	0.845698	0.31241	0.189291	1.91172	0.432812	0.597626	0.70631	0.324966	0.890131	0.308443
0.293303	0.577905	0.0587963	1.93376	0.290508	0.517427	0.455562	0.60125	0.573129	0.593858	0.845992	0.318677	0.191079	1.92655	0.43294	0.600281	0.706615	0.331428	0.890421	0.314472
0.293847	0.588847	0.060603	1.9443	0.290995	0.528495	0.455835	0.606715	0.573687	0.60496	0.846292	0.324912	0.192881	1.94074	0.433124	0.604119	0.706927	0.337908	0.890717	0.320524
0.294401	0.599817	0.0624193	1.95438	0.291493	0.539559	0.456038	0.610618	0.574256	0.616033	0.846597	0.331155	0.194696	1.95431	0.433326	0.608269	0.707245	0.344348	0.891018	0.326622
0.294965	0.610772	0.0642448	1.96401	0.292001	0.550621	0.456168	0.613276	0.574835	0.627046	0.846909	0.337417	0.196523	1.96733	0.433603	0.61394	0.707569	0.350783	0.891325	0.332665
0.295539	0.621694	0.066079	1.97323	0.292519	0.561645	0.456356	0.617106	0.575425	0.638012	0.847226	0.343642	0.198362	1.9798	0.433956	0.621175	0.707899	0.357208	0.891638	0.338672
0.296123	0.632553	0.0679216	1.98206	0.293047	0.572614	0.456562	0.621046	0.576024	0.648958	0.847549	0.349867	0.200212	1.99175	0.434389	0.62979	0.708234	0.363613	0.891956	0.344754
0.296717	0.643431	0.0697724	1.99052	0.293586	0.583628	0.456845	0.626459	0.576634	0.659863	0.847878	0.356091	0.202073	2.00322	0.434904	0.639929	0.708576	0.37005	0.89228	0.350765
0.297322	0.654348	0.0716308	1.99863	0.294135	0.594592	0.457205	0.633376	0.577254	0.670687	0.848213	0.362312	0.203945	2.01427	0.435506	0.651495	0.708924	0.376479	0.89261	0.356782
0.297937	0.665194	0.0734966	2.00636	0.294694	0.60553	0.457647	0.641705	0.577884	0.681495	0.848553	0.36853	0.205826	2.02481	0.436118	0.663027	0.709278	0.382893	0.892945	0.36281
0.298562	0.675974	0.0753694	2.01376	0.295263	0.616456	0.458171	0.651383	0.578524	0.692272	0.848899	0.374741	0.207718	2.03495	0.436742	0.674506	0.709637	0.389274	0.893286	0.368787
0.299196	0.686767	0.077249	2.02087	0.295842	0.627375	0.458784	0.662505	0.579089	0.701625	0.849251	0.380935	0.209618	2.04467	0.437375	0.685959	0.710003	0.395664	0.893632	0.374808
0.299841	0.697586	0.079135	2.02769	0.296432	0.638255	0.459406	0.673523	0.579578	0.709537	0.849609	0.3871	0.211528	2.05403	0.43802	0.697361	0.710375	0.402072	0.893984	0.38077
0.300496	0.708385	0.0810274	2.03423	0.297032	0.649114	0.460039	0.684525	0.579986	0.716082	0.849973	0.393276	0.213446	2.06304	0.438675	0.708739	0.710752	0.408444	0.894342	0.386763
0.301161	0.719142	0.0829256	2.04043	0.297642	0.660001	0.460681	0.695446	0.580311	0.721259	0.850342	0.399475	0.215372	2.07168	0.43934	0.72003	0.711136	0.414815	0.894705	0.392742
0.301836	0.72989	0.0848295	2.04646	0.298262	0.670827	0.461334	0.706326	0.580552	0.725148	0.850717	0.405649	0.217306	2.07999	0.440016	0.731279	0.711525	0.421184	0.895074	0.398694
0.302521	0.74062	0.086739	2.05222	0.298892	0.681624	0.461998	0.717186	0.580706	0.72754	0.851098	0.411771	0.219248	2.08799	0.440703	0.742507	0.711921	0.427551	0.895448	0.404667
0.303216	0.751313	0.0886536	2.05774	0.299532	0.692442	0.462671	0.727963	0.58093	0.730944	0.851484	0.417935	0.221197	2.09569	0.4414	0.75365	0.712322	0.433913	0.895828	0.410606
0.303921	0.762006	0.0905733	2.06306	0.300182	0.703234	0.463354	0.738698	0.581173	0.734732	0.851877	0.424112	0.223153	2.10309	0.442107	0.764789	0.712729	0.440264	0.896213	0.416551
0.304636	0.772698	0.0924979	2.06813	0.300842	0.713977	0.464047	0.749376	0.581507	0.739831	0.852275	0.43024	0.225116	2.11023	0.442825	0.775887	0.713142	0.446596	0.896604	0.42251
0.305267	0.782035	0.0944271	2.07299	0.301512	0.724732	0.46475	0.759988	0.581932	0.746305	0.852678	0.436343	0.227085	2.1171	0.443553	0.786857	0.713561	0.452886	0.897001	0.428421
0.305811	0.789978	0.0963607	2.07767	0.302193	0.735493	0.465463	0.770568	0.582452	0.754065	0.853088	0.442471	0.229061	2.12372	0.444291	0.797835	0.713986	0.459241	0.897402	0.434311
0.306265	0.796485	0.0982986	2.08218	0.302883	0.746183	0.466186	0.781094	0.583068	0.763227	0.853503	0.448573	0.231042	2.13007	0.44504	0.808817	0.714417	0.465579	0.89781	0.440231
0.306627	0.801743	0.100241	2.08653	0.303583	0.756912	0.466919	0.791594	0.583783	0.77363	0.853924	0.4547	0.23303	2.13625	0.445799	0.819691	0.714797	0.471025	0.898223	0.446138
0.306894	0.805522	0.102187	2.09067	0.304293	0.767623	0.467661	0.801971	0.584509	0.783995	0.85435	0.4608	0.235023	2.14219	0.446567	0.830475	0.715125	0.475741	0.898641	0.45202
0.307066	0.807917	0.104136	2.09465	0.305013	0.778288	0.468413	0.812323	0.585244	0.794305	0.854782	0.466849	0.237022	2.14788	0.447346	0.84125	0.715398	0.479632	0.899065	0.45785
0.307314	0.811412	0.10609	2.0985	0.305743	0.788967	0.469175	0.822626	0.585989	0.804586	0.85522	0.47294	0.239025	2.15339	0.448135	0.852021	0.715616	0.482688	0.899494	0.463726
0.307585	0.815222	0.108047	2.10216	0.306484	0.799617	0.469946	0.832832	0.586744	0.814818	0.855664	0.479043	0.241034	2.15871	0.448934	0.86268	0.715777	0.484821	0.899929	0.469618
0.307955	0.820427	0.110007	2.10569	0.307233	0.810289	0.470727	0.843061	0.587508	0.824987	0.856113	0.485097	0.243048	2.16386	0.449742	0.873283	0.71588	0.486299	0.900369	0.475469
0.308426	0.826901	0.11197	2.10914	0.307993	0.820971	0.471517	0.853193	0.588281	0.835089	0.856567	0.491126	0.245066	2.16882	0.450561	0.883894	0.71603	0.488463	0.900815	0.481313
0.309001	0.834824	0.113684	2.112	0.308763	0.831586	0.472317	0.863239	0.589064	0.845157	0.857028	0.497178	0.247089	2.1736	0.451389	0.894437	0.716193	0.490627	0.901266	0.48714
0.309683	0.844149	0.115147	2.11432	0.309543	0.842203	0.473126	0.87328	0.589856	0.855208	0.857494	0.503203	0.249117	2.17823	0.452228	0.904908	0.716415	0.493711	0.901723	0.492935
0.310474	0.854761	0.116357	2.11621	0.310333	0.852895	0.473944	0.883244	0.590657	0.865177	0.857966	0.509246	0.251148	2.1827	0.453076	0.915308	0.716699	0.497597	0.902185	0.498738
0.311276	0.865377	0.117315	2.1178	0.311132	0.863515	0.474772	0.893133	0.591468	0.875106	0.858443	0.515255	0.253184	2.18703	0.453933	0.925671	0.717045	0.50224	0.902652	0.50456
0.312087	0.876032	0.11802	2.11877	0.311942	0.874135	0.475608	0.902985	0.592288	0.884977	0.858926	0.521266	0.255223	2.19117	0.4548	0.936016	0.717455	0.507688	0.903125	0.510343
0.312908	0.88667	0.118471	2.11934	0.312761	0.884755	0.476454	0.912781	0.593117	0.89482	0.859414	0.527281	0.257267	2.19521	0.455677	0.946279	0.717931	0.513918	0.903603	0.516123
0.313739	0.897335	0.11912	2.12043	0.31359	0.895411	0.477309	0.922514	0.593955	0.904612	0.859844	0.532493	0.259314	2.19911	0.456564	0.956501	0.718413	0.520183	0.904087	0.521898
0.31458	0.907941	0.119826	2.12152	0.31443	0.906086	0.478173	0.932214	0.594803	0.914306	0.860214	0.536926	0.261365	2.20288	0.45746	0.966665	0.7189	0.526428	0.904576	0.52766
0.315431	0.918591	0.120786	2.12284	0.315279	0.916697	0.479046	0.941824	0.595659	0.923986	0.860523	0.540528	0.263419	2.20653	0.458365	0.976801	0.719394	0.532663	0.90507	0.533399
0.316292	0.929299	0.122002	2.12449	0.316138	0.927349	0.479928	0.951354	0.596524	0.933624	0.860768	0.543479	0.265476	2.21004	0.45928	0.98685	0.719893	0.538893	0.905505	0.538393
0.317163	0.939963	0.123473	2.12647	0.317007	0.938059	0.480819	0.960843	0.597399	0.943167	0.860949	0.545612	0.267537	2.21344	0.460204	0.996855	0.720398	0.545085	0.905879	0.542649
0.318043	0.950642	0.1252	2.12881	0.317886	0.94876	0.481719	0.970275	0.598282	0.952699	0.861066	0.546998	0.269601	2.21671	0.461137	1.00684	0.720908	0.551293	0.906191	0.54611
0.318934	0.961365	0.127185	2.13132	0.318775	0.959457	0.482627	0.979678	0.599174	0.962189	0.861233	0.549044	0.271668	2.21989	0.46208	1.01674	0.721425	0.55751	0.906438	0.549014
0.319835	0.972073	0.129172	2.13372	0.319674	0.970189	0.483544	0.989031	0.600075	0.971585	0.861416	0.551069	0.273737	2.22298	0.463032	1.02659	0.721947	0.563695	0.906622	0.550899
0.320745	0.982847	0.131161	2.13605	0.320582	0.980902	0.48447	0.998285	0.600984	0.980971	0.861666	0.553944	0.27581	2.22599	0.463993	1.03639	0.722475	0.569863	0.906739	0.552125
0.321666	0.993653	0.133152	2.13832	0.321501	0.991678	0.485404	1.00749	0.601903	0.990278	0.861985	0.557653	0.277885	2.22885	0.464963	1.04616	0.723009	0.576024	0.906908	0.554171
0.322597	1.00444	0.135145	2.14047	0.32243	1.00252	0.486347	1.01663	0.60283	0.999509	0.862372	0.562012	0.279963	2.23163	0.465942	1.05584	0.723549	0.58218	0.907093	0.55626
0.323538	1.01529	0.137141	2.14254	0.323369	1.01337	0.487299	1.02571	0.603765	1.00878	0.86283	0.567237	0.282044	2.23431	0.466931	1.06548	0.724094	0.588335	0.907345	0.559002
0.324489	1.02617	0.139138	2.14456	0.324319	1.02424	0.488259	1.03479	0.604709	1.01791	0.863362	0.573148	0.284126	2.23693	0.467928	1.0751	0.724645	0.594488	0.907666	0.562428
0.32545	1.03711	0.141137	2.14649	0.325278	1.03517	0.489227	1.04376	0.605662	1.02699	0.863898	0.579033	0.286212	2.23948	0.468934	1.08467	0.725202	0.600641	0.908057	0.566661
0.326421	1.04807	0.143138	2.14833	0.326248	1.04613	0.490203	1.05264	0.606623	1.03606	0.864441	0.584942	0.288299	2.24186	0.469949	1.09414	0.725764	0.606757	0.908519	0.571642
0.327403	1.05911	0.14514	2.15013	0.327227	1.05714	0.491188	1.06151	0.607593	1.04507	0.864988	0.590826	0.290389	2.24422	0.470973	1.10356	0.726332	0.612854	0.909054	0.577301
0.328395	1.0702	0.147144	2.15184	0.328217	1.06821	0.492181	1.07034	0.60857	1.05404	0.865542	0.596734	0.292481	2.24653	0.472005	1.11296	0.726906	0.618943	0.909595	0.58295
0.329397	1.08131	0.14915	2.15346	0.329218	1.07932	0.493183	1.07908	0.609557	1.06292	0.8661	0.602618	0.294575	2.24871	0.473047	1.12231	0.727486	0.625063	0.910141	0.588595
0.33041	1.09254	0.151157	2.15504	0.330229	1.09051	0.494192	1.08773	0.610551	1.07176	0.866664	0.608453	0.296672	2.25087	0.474097	1.13164	0.728071	0.631163	0.910692	0.5942
0.331433	1.1038	0.153165	2.1566	0.33125	1.10182	0.49521	1.09638	0.611554	1.08053	0.867234	0.614337	0.29877	2.25293	0.475155	1.14084	0.728662	0.637216	0.911248	0.599823
0.332467	1.11514	0.155175	2.15807	0.332282	1.11315	0.496235	1.10495	0.612565	1.08928	0.867809	0.620172	0.30087	2.25488	0.476222	1.15002	0.729258	0.643281	0.911809	0.605454
0.333511	1.12663	0.157187	2.15947	0.333324	1.12456	0.497269	1.11345	0.613584	1.09797	0.86839	0.625982	0.302971	2.25681	0.477298	1.15915	0.72986	0.649354	0.912376	0.611053
0.334566	1.13813	0.159199	2.16083	0.334377	1.13609	0.49831	1.12191	0.61461	1.1066	0.868976	0.631817	0.305075	2.25869	0.478382	1.16822	0.730468	0.655393	0.912948	0.616635
0.335632	1.14974	0.161213	2.16213	0.335441	1.14768	0.499359	1.13031	0.615646	1.1152	0.869567	0.637628	0.30718	2.26047	0.479475	1.1773	0.731082	0.661416	0.913525	0.622173
0.336708	1.16147	0.163228	2.1634	0.336516	1.15937	0.500416	1.13865	0.616689	1.12371	0.870164	0.643426	0.309287	2.2622	0.480576	1.18627	0.731701	0.66743	0.914107	0.627725
