Sym0		Asym0		Sym1		Sym2		Sym3		Sym4		Asym1		Asym2		Asym3	
475  Points		494  Points		242  Points		167  Points		142  Points		112  Points		382  Points		187  Points		147  Points	
Freq (MHz)	Vgr (m/ms)	Freq (MHz)	Vgr (m/ms)	Freq (MHz)	Vgr (m/ms)	Freq (MHz)	Vgr (m/ms)	Freq (MHz)	Vgr (m/ms)	Freq (MHz)	Vgr (m/ms)	Freq (MHz)	Vgr (m/ms)	Freq (MHz)	Vgr (m/ms)	Freq (MHz)	Vgr (m/ms)
0.00506734	6.32094	0.000442112	0.481585	0.279518	0.0870112	0.443116	0.081439	0.559023	0.0553691	0.838526	0.0214427	0.139785	0.277399	0.419263	0.039761	0.698788	0.0579965
0.0109565	6.3199	0.000890802	0.561776	0.279599	0.131698	0.443192	0.110673	0.559074	0.0844529	0.838546	0.0389786	0.140043	0.418088	0.4193	0.0748698	0.698842	0.0779222
0.0168438	6.31729	0.00148892	0.718781	0.279763	0.220859	0.443322	0.16915	0.55918	0.142554	0.838598	0.0740814	0.140564	0.697332	0.419402	0.14504	0.698933	0.117704
0.0227281	6.3136	0.00223017	0.868509	0.28001	0.30968	0.443507	0.227731	0.55934	0.200602	0.838684	0.109204	0.141342	0.971348	0.41957	0.215141	0.699061	0.157497
0.0286085	6.30879	0.00310729	1.00998	0.28034	0.398113	0.443747	0.286592	0.559554	0.258616	0.838802	0.144293	0.142374	1.23828	0.419803	0.285104	0.699227	0.197314
0.0344838	6.30284	0.00411216	1.14241	0.280752	0.48599	0.444041	0.345793	0.559822	0.31649	0.838953	0.179314	0.14365	1.49652	0.420101	0.354865	0.699429	0.237029
0.0403531	6.29575	0.00523605	1.26541	0.281246	0.573193	0.444391	0.405308	0.560143	0.374232	0.839136	0.214348	0.145162	1.74487	0.420465	0.424439	0.699668	0.27669
0.0462153	6.28745	0.00647011	1.37875	0.28182	0.659636	0.444796	0.465232	0.560519	0.431852	0.839352	0.249404	0.146901	1.98236	0.420892	0.493788	0.699945	0.316314
0.0520691	6.27795	0.0078052	1.48239	0.282475	0.745217	0.445258	0.525681	0.560948	0.489306	0.839601	0.284361	0.148856	2.20833	0.421385	0.562832	0.700258	0.355864
0.0579136	6.26722	0.00923238	1.57659	0.283209	0.829808	0.445776	0.586668	0.561431	0.546572	0.839882	0.319266	0.151016	2.42245	0.421941	0.631488	0.700608	0.395341
0.0637474	6.25513	0.010743	1.66179	0.284021	0.913369	0.446351	0.648215	0.561967	0.603608	0.840196	0.354138	0.15337	2.6245	0.422561	0.699805	0.700995	0.434745
0.0695693	6.24179	0.0123289	1.73837	0.284911	0.995823	0.446984	0.710372	0.562556	0.660404	0.840542	0.388946	0.155907	2.81461	0.423245	0.767737	0.701418	0.474001
0.0753783	6.22706	0.0139823	1.80685	0.285877	1.07709	0.447675	0.773237	0.563197	0.717015	0.84092	0.423698	0.158615	2.99303	0.423992	0.835193	0.701878	0.513181
0.0811727	6.21086	0.0156958	1.86794	0.286918	1.15715	0.448425	0.836857	0.563892	0.773328	0.841331	0.458413	0.161484	3.1601	0.424801	0.902209	0.702374	0.552285
0.0869515	6.19325	0.017463	1.92215	0.288033	1.2359	0.449234	0.901181	0.564638	0.829337	0.841775	0.493052	0.164503	3.31628	0.425673	0.968713	0.702907	0.591235
0.0927132	6.17406	0.0192775	1.97007	0.289221	1.31341	0.450104	0.96633	0.565437	0.885106	0.84225	0.527615	0.167663	3.46207	0.426607	1.03463	0.703476	0.630095
0.0984562	6.15319	0.021134	2.0123	0.290481	1.38964	0.451035	1.03232	0.566288	0.94054	0.842758	0.562096	0.170954	3.59801	0.427601	1.09996	0.704081	0.668779
0.104179	6.13065	0.0230272	2.04944	0.29181	1.46452	0.452028	1.09911	0.56719	0.995598	0.843297	0.596487	0.174368	3.72465	0.428656	1.16471	0.704722	0.707328
0.10988	6.10636	0.0249529	2.08197	0.29321	1.5382	0.453083	1.16686	0.568143	1.05034	0.843869	0.630773	0.177895	3.84258	0.429771	1.22886	0.705399	0.745755
0.115558	6.08019	0.0269068	2.11035	0.294677	1.61061	0.454202	1.23548	0.569147	1.10475	0.844473	0.664995	0.181528	3.95247	0.430946	1.29235	0.706112	0.784009
0.12121	6.05203	0.0288853	2.13508	0.296211	1.68184	0.455385	1.30496	0.570201	1.15878	0.845108	0.69916	0.184775	4.04211	0.43218	1.35511	0.70686	0.822139
0.126835	6.02178	0.0308852	2.15658	0.297811	1.752	0.456634	1.37538	0.571306	1.21243	0.845776	0.733141	0.187598	4.11413	0.433471	1.41718	0.707644	0.860094
0.132431	5.98934	0.0329038	2.17519	0.299475	1.82113	0.457948	1.44671	0.572461	1.26567	0.846474	0.767046	0.189969	4.17075	0.43482	1.47856	0.708463	0.897843
0.137995	5.95462	0.0349385	2.19132	0.301204	1.88937	0.459329	1.51898	0.573665	1.31854	0.847205	0.80087	0.191866	4.21373	0.436226	1.53915	0.709317	0.935402
0.143526	5.91748	0.0367229	2.20357	0.302996	1.95685	0.460778	1.59211	0.574918	1.37097	0.847967	0.834534	0.193274	4.24456	0.437688	1.59901	0.710206	0.9728
0.149022	5.87771	0.0382514	2.21276	0.30485	2.02363	0.462296	1.66607	0.576219	1.423	0.84876	0.868098	0.19418	4.26373	0.439206	1.65809	0.711129	1.01002
0.154479	5.8353	0.0395199	2.21955	0.306767	2.08995	0.463883	1.74092	0.577569	1.47464	0.849584	0.901533	0.195489	4.29059	0.440778	1.71635	0.712088	1.04704
0.159895	5.79002	0.0405255	2.22456	0.308745	2.15603	0.46554	1.81655	0.578967	1.52582	0.85044	0.93486	0.196921	4.31916	0.442404	1.77382	0.71308	1.08388
0.165268	5.74173	0.0412663	2.22794	0.310784	2.22196	0.467268	1.89296	0.580412	1.57657	0.851326	0.968041	0.198885	4.35666	0.444083	1.83046	0.714107	1.12048
0.170594	5.69033	0.041741	2.23002	0.312885	2.2879	0.469067	1.97013	0.581905	1.62686	0.852244	1.00108	0.201391	4.40231	0.445815	1.88633	0.715168	1.15686
0.175871	5.63559	0.0424241	2.23286	0.315048	2.35416	0.470939	2.04794	0.583444	1.67675	0.853192	1.03398	0.204457	4.45475	0.447598	1.94138	0.716263	1.19305
0.181096	5.57744	0.0431676	2.23569	0.317272	2.42099	0.472884	2.12634	0.585029	1.72622	0.85417	1.06674	0.208098	4.5127	0.449432	1.99551	0.717392	1.22904
0.186264	5.51572	0.0441802	2.23936	0.319559	2.48851	0.474901	2.2053	0.58666	1.77521	0.85518	1.09937	0.212333	4.57479	0.451317	2.04884	0.718553	1.26477
0.191374	5.45028	0.0454631	2.24358	0.321909	2.55697	0.476993	2.2847	0.588337	1.82376	0.856219	1.13183	0.216623	4.63238	0.45325	2.10138	0.719748	1.30026
0.19642	5.38099	0.0470176	2.24813	0.324323	2.62658	0.479159	2.36455	0.590059	1.87192	0.857289	1.16415	0.220965	4.68571	0.455232	2.15306	0.720976	1.33557
0.2014	5.30776	0.0488449	2.25275	0.326481	2.68827	0.481399	2.4447	0.591825	1.91961	0.858388	1.19628	0.225354	4.73501	0.457262	2.20392	0.722237	1.37067
0.206311	5.23057	0.050946	2.25718	0.32836	2.74182	0.483714	2.52502	0.593636	1.96687	0.859518	1.22824	0.229788	4.78054	0.459339	2.25392	0.72353	1.40549
0.211147	5.1493	0.0530509	2.26082	0.329942	2.78683	0.486104	2.60554	0.59549	2.01372	0.860677	1.26008	0.234262	4.82252	0.461462	2.30309	0.724856	1.44006
0.215906	5.06395	0.0551588	2.26381	0.331211	2.82279	0.488569	2.68609	0.597388	2.06016	0.861866	1.29175	0.238774	4.86117	0.463631	2.35148	0.726214	1.4744
0.220583	4.97463	0.0572692	2.26623	0.332155	2.84955	0.491109	2.76654	0.599329	2.10618	0.863084	1.32323	0.24332	4.89657	0.465844	2.39904	0.727603	1.50852
0.225175	4.88138	0.0593817	2.26806	0.332763	2.86684	0.493724	2.84689	0.601313	2.15177	0.864331	1.35455	0.247898	4.92899	0.468101	2.44583	0.729025	1.5424
0.229679	4.78432	0.0614955	2.26948	0.333645	2.89183	0.496414	2.927	0.603339	2.19704	0.865608	1.3857	0.252505	4.95864	0.470401	2.49187	0.730477	1.57603
0.234091	4.68365	0.0636106	2.27053	0.334612	2.91923	0.499178	3.00674	0.605407	2.24188	0.866914	1.41665	0.257138	4.98551	0.472744	2.53707	0.731961	1.60944
0.238407	4.57973	0.0657264	2.27123	0.335941	2.95694	0.502017	3.08601	0.607516	2.28635	0.868248	1.44741	0.261795	5.00979	0.475129	2.58154	0.733476	1.64259
0.242624	4.4728	0.0678428	2.27169	0.337647	3.00538	0.504929	3.1648	0.609667	2.33049	0.869611	1.47803	0.266473	5.03163	0.477555	2.62531	0.735022	1.67548
0.246741	4.36324	0.0699594	2.27185	0.339748	3.06487	0.507914	3.24291	0.611859	2.37422	0.871002	1.50844	0.271171	5.05112	0.480021	2.6683	0.736599	1.70815
0.250755	4.25158	0.0720761	2.27182	0.342265	3.13604	0.510972	3.32025	0.614091	2.41768	0.872421	1.53865	0.275885	5.06838	0.482527	2.71064	0.738205	1.74054
0.254664	4.13826	0.0741927	2.27162	0.345225	3.21962	0.514101	3.39684	0.616364	2.46086	0.873869	1.56865	0.280615	5.08348	0.485072	2.75232	0.739842	1.77273
0.258466	4.02384	0.076309	2.2713	0.348264	3.30496	0.517301	3.47248	0.618677	2.50372	0.875344	1.59849	0.285358	5.09646	0.487656	2.79334	0.741508	1.80465
0.262161	3.90888	0.0784251	2.27085	0.351383	3.39197	0.520572	3.54705	0.621029	2.5463	0.876848	1.62815	0.290112	5.10741	0.490277	2.83372	0.743205	1.83635
0.26575	3.79394	0.0805405	2.27029	0.354585	3.48048	0.523911	3.62062	0.623421	2.5886	0.878378	1.65757	0.294875	5.11652	0.492936	2.87346	0.74493	1.86781
0.269231	3.67966	0.0826555	2.26969	0.357869	3.57019	0.527318	3.69298	0.625853	2.63073	0.879936	1.68683	0.299646	5.12367	0.495631	2.91265	0.746685	1.89903
0.272606	3.56651	0.0847698	2.26898	0.361237	3.66067	0.530792	3.76409	0.628324	2.67266	0.881522	1.7159	0.304422	5.129	0.498363	2.95133	0.748469	1.93003
0.275877	3.45506	0.0868835	2.26822	0.36469	3.75154	0.534332	3.83387	0.630833	2.71434	0.883134	1.74475	0.309203	5.13258	0.500773	2.98459	0.750281	1.96076
0.279045	3.34582	0.0889964	2.26741	0.368228	3.84242	0.537936	3.90225	0.633381	2.75594	0.884773	1.77337	0.313986	5.13445	0.502848	3.0126	0.752123	1.99124
0.282111	3.23927	0.0911085	2.26659	0.37185	3.9328	0.541604	3.96919	0.635968	2.79746	0.886438	1.80182	0.318771	5.13461	0.504579	3.03563	0.753992	2.02152
0.285081	3.13574	0.09322	2.26579	0.375556	4.02215	0.545333	4.0346	0.638594	2.83884	0.88813	1.83008	0.323554	5.13308	0.505957	3.05368	0.755889	2.05161
0.287955	3.03554	0.0953306	2.26491	0.379345	4.11008	0.548631	4.09033	0.641258	2.88013	0.889848	1.85812	0.328336	5.13001	0.506975	3.06689	0.757815	2.08145
0.290737	2.939	0.0974404	2.26406	0.383215	4.19604	0.551478	4.13682	0.643961	2.92148	0.891593	1.88592	0.333113	5.12529	0.507629	3.07533	0.759768	2.11105
0.293431	2.84625	0.0995494	2.2632	0.387164	4.2796	0.553857	4.17469	0.646702	2.96288	0.893363	1.91355	0.337886	5.11901	0.508573	3.08739	0.761749	2.14042
0.296041	2.75743	0.101658	2.26229	0.391189	4.36039	0.555753	4.20403	0.649482	3.00428	0.895158	1.94098	0.342652	5.11125	0.509602	3.10045	0.763756	2.16959
0.298569	2.67267	0.103765	2.26148	0.395289	4.43802	0.557155	4.22552	0.6523	3.04579	0.896979	1.96815	0.34741	5.10192	0.511009	3.11808	0.765791	2.19854
0.301021	2.59199	0.105872	2.26063	0.399459	4.51225	0.558057	4.23909	0.655157	3.08749	0.898826	1.99518	0.352159	5.09106	0.5128	3.14029	0.767853	2.2273
0.303399	2.51537	0.107977	2.25976	0.403697	4.58273	0.559357	4.2582	0.658054	3.12944	0.900697	2.02197	0.356897	5.07875	0.514983	3.16702	0.769942	2.25583
0.305708	2.44276	0.110082	2.25893	0.407999	4.64931	0.560778	4.27898	0.660989	3.17158	0.902593	2.04854	0.361623	5.06498	0.517567	3.19807	0.772057	2.28415
0.307951	2.37409	0.112187	2.25814	0.412361	4.71194	0.56272	4.30681	0.663963	3.21405	0.904514	2.07495	0.366335	5.04974	0.520563	3.23336	0.774198	2.31232
0.310132	2.30927	0.11429	2.25735	0.416779	4.77046	0.565195	4.34136	0.666978	3.25695	0.90646	2.10109	0.371032	5.03308	0.523592	3.2684	0.776365	2.34024
0.312254	2.24816	0.116393	2.25655	0.42125	4.82485	0.568214	4.3822	0.670032	3.30027	0.90843	2.12702	0.375714	5.01493	0.526653	3.30317	0.778559	2.36795
0.314321	2.19063	0.118495	2.25582	0.425769	4.87511	0.571791	4.42871	0.673128	3.34406	0.910423	2.1528	0.380377	4.99539	0.529747	3.33769	0.780778	2.39554
0.316336	2.13651	0.120596	2.25505	0.430334	4.9213	0.575942	4.48031	0.675858	3.38273	0.912441	2.17836	0.385022	4.97448	0.532873	3.37195	0.783023	2.42289
0.318302	2.08568	0.122697	2.25434	0.43494	4.96354	0.58014	4.52995	0.678211	3.41599	0.914483	2.2037	0.389647	4.95212	0.53603	3.40607	0.785293	2.45004
0.320222	2.03801	0.124797	2.25365	0.439583	5.00195	0.584383	4.57751	0.680174	3.44384	0.916547	2.22883	0.39425	4.92839	0.53922	3.44005	0.787588	2.47703
0.3221	1.99335	0.126897	2.25294	0.44426	5.03658	0.58867	4.6229	0.681737	3.46605	0.918636	2.25373	0.39883	4.9033	0.54244	3.47381	0.789908	2.50383
0.323937	1.95142	0.128995	2.25229	0.448968	5.06758	0.592997	4.66614	0.682893	3.48246	0.920747	2.27848	0.403386	4.87684	0.545693	3.50746	0.792254	2.53048
0.325507	1.91694	0.131093	2.25168	0.453703	5.09517	0.597364	4.7072	0.683636	3.49306	0.922881	2.30301	0.407917	4.84903	0.548976	3.54102	0.794624	2.55691
0.326824	1.88918	0.133191	2.25104	0.458462	5.11944	0.601769	4.74593	0.684708	3.50833	0.925038	2.32732	0.412422	4.81993	0.552291	3.5745	0.797018	2.58317
0.327899	1.86724	0.135288	2.25043	0.463243	5.14058	0.606208	4.78229	0.685878	3.52502	0.927218	2.35147	0.416899	4.78952	0.555637	3.60791	0.799437	2.60932
0.32874	1.85051	0.137384	2.24983	0.468041	5.15877	0.61068	4.81629	0.687478	3.54799	0.92942	2.37537	0.421347	4.75784	0.559014	3.64123	0.80188	2.63527
0.329353	1.83866	0.13948	2.24927	0.472855	5.17409	0.615183	4.84783	0.689517	3.57732	0.931644	2.39909	0.425765	4.72493	0.562422	3.67449	0.804348	2.66101
0.329744	1.83117	0.141576	2.24874	0.477683	5.18677	0.619713	4.87686	0.692006	3.61321	0.933891	2.42265	0.430151	4.69075	0.565861	3.7077	0.806839	2.68664
0.330303	1.82051	0.143671	2.24818	0.48252	5.19695	0.62427	4.90331	0.694956	3.65612	0.936159	2.44597	0.434505	4.65539	0.569331	3.7409	0.809029	2.70883
0.330907	1.80931	0.145765	2.24764	0.487367	5.20475	0.62885	4.92715	0.698386	3.70634	0.938448	2.4691	0.438826	4.61889	0.572832	3.77405	0.81091	2.72762
0.331722	1.79461	0.147859	2.24715	0.492219	5.2103	0.633451	4.94831	0.701863	3.75767	0.94076	2.49206	0.443112	4.58126	0.576363	3.80711	0.812476	2.74313
0.332744	1.77666	0.149952	2.24669	0.497075	5.21373	0.638071	4.96672	0.705388	3.81026	0.943092	2.51484	0.447363	4.5426	0.579926	3.84008	0.81372	2.7554
0.333966	1.75585	0.152045	2.2462	0.501934	5.2152	0.642706	4.98244	0.708963	3.8642	0.945446	2.53739	0.451577	4.50284	0.583519	3.87297	0.814638	2.76424
0.335382	1.7329	0.154138	2.24578	0.506793	5.21475	0.647355	4.99532	0.712588	3.91951	0.94782	2.5598	0.455753	4.46215	0.587143	3.90578	0.815228	2.76994
0.336985	1.70813	0.15623	2.24534	0.511651	5.21259	0.652014	5.00535	0.716266	3.97625	0.950216	2.58206	0.459891	4.42053	0.590797	3.93849	0.816077	2.77823
0.338565	1.68498	0.158322	2.24491	0.516506	5.20873	0.656682	5.0126	0.719998	4.03446	0.952632	2.6041	0.46399	4.37801	0.594482	3.97099	0.817003	2.78712
0.340125	1.66349	0.160413	2.24447	0.521357	5.20328	0.661355	5.01699	0.723784	4.09414	0.955068	2.62597	0.468049	4.33474	0.598196	4.00335	0.818267	2.79924
0.341665	1.64347	0.162504	2.24407	0.526202	5.19638	0.666031	5.01857	0.727627	4.15544	0.957525	2.64768	0.472068	4.29065	0.601941	4.0355	0.819873	2.81445
0.343187	1.62482	0.164595	2.24372	0.53104	5.18803	0.670706	5.01734	0.731527	4.21825	0.960002	2.66919	0.476045	4.2459	0.605716	4.0674	0.821828	2.83274
0.344693	1.60751	0.166685	2.24332	0.53587	5.17839	0.67538	5.01343	0.735487	4.28254	0.962499	2.69053	0.479979	4.20057	0.609521	4.09902	0.824136	2.85411
0.346183	1.5915	0.168775	2.24298	0.540689	5.16749	0.680048	5.0069	0.739507	4.34833	0.965015	2.71176	0.483872	4.15465	0.613354	4.13028	0.826807	2.87848
0.347658	1.57661	0.170865	2.24263	0.545499	5.15538	0.68471	4.99781	0.74359	4.41551	0.967552	2.73282	0.487721	4.10825	0.617217	4.16122	0.8295	2.90275
0.349121	1.56283	0.172954	2.24227	0.550296	5.14215	0.689361	4.98634	0.747735	4.48396	0.969778	2.75108	0.491527	4.06146	0.621108	4.19175	0.832216	2.92686
0.350571	1.55011	0.175043	2.24198	0.55508	5.1278	0.694001	4.97266	0.751945	4.55356	0.971687	2.7665	0.495289	4.01434	0.625028	4.2218	0.834954	2.95078
0.352009	1.53833	0.177131	2.24165	0.559851	5.11243	0.698627	4.95696	0.75622	4.62425	0.973274	2.77918	0.499007	3.96694	0.628975	4.25133	0.837714	2.97457
0.353437	1.5275	0.17922	2.2413	0.564607	5.0961	0.703238	4.93944	0.760562	4.69574	0.974534	2.78923	0.502681	3.9194	0.63295	4.2803	0.840497	2.99818
0.354855	1.51751	0.181308	2.24102	0.569347	5.07885	0.707831	4.92036	0.76497	4.76782	0.975464	2.79645	0.506311	3.87172	0.636951	4.30874	0.843301	3.02167
0.356265	1.50834	0.183396	2.24077	0.574071	5.06067	0.712406	4.89997	0.769446	4.84033	0.97606	2.80117	0.509896	3.82396	0.640978	4.33648	0.846127	3.04502
0.357666	1.49998	0.185483	2.24046	0.578777	5.04165	0.716962	4.8785	0.77399	4.91298	0.976918	2.80799	0.513436	3.77624	0.645031	4.36353	0.848975	3.06816
0.35906	1.49228	0.187571	2.24019	0.583465	5.02182	0.721497	4.85627	0.778601	4.9856	0.977854	2.81527	0.516932	3.72858	0.649109	4.38991	0.851844	3.09119
0.360447	1.48529	0.189658	2.23995	0.588135	5.00117	0.726011	4.83354	0.78328	5.05788	0.97913	2.82516	0.520384	3.68113	0.653212	4.41547	0.854735	3.1141
0.361827	1.47897	0.191744	2.23965	0.592784	4.97979	0.730504	4.81057	0.788026	5.1295	0.98075	2.83758	0.523792	3.63389	0.657337	4.44023	0.857647	3.13683
0.363203	1.47317	0.193831	2.23942	0.597414	4.95767	0.734975	4.78769	0.792838	5.20032	0.98272	2.85263	0.527155	3.58687	0.661485	4.46415	0.86058	3.1594
0.364573	1.46801	0.195917	2.2392	0.602022	4.93486	0.739425	4.76505	0.797716	5.27008	0.985043	2.87011	0.530475	3.54022	0.665656	4.48716	0.863534	3.18182
0.365938	1.46341	0.198004	2.23894	0.606609	4.91136	0.743854	4.74293	0.802658	5.33851	0.987726	2.89009	0.533752	3.49397	0.669847	4.50926	0.866509	3.20409
0.367299	1.45924	0.200089	2.2387	0.611174	4.88728	0.748263	4.72154	0.807664	5.40538	0.990428	2.90997	0.536986	3.4481	0.674058	4.53045	0.869505	3.22621
0.368657	1.45562	0.202175	2.23847	0.615716	4.86256	0.752652	4.70103	0.812731	5.47061	0.993149	2.92972	0.540177	3.40268	0.678289	4.55067	0.872521	3.24818
0.370012	1.45242	0.204261	2.23829	0.620235	4.8372	0.757023	4.68158	0.817857	5.53402	0.995887	2.94942	0.543327	3.35781	0.682538	4.56987	0.875557	3.27001
0.371364	1.44964	0.206346	2.23808	0.62473	4.8113	0.761376	4.66329	0.823043	5.5955	0.998644	2.96897	0.546434	3.31348	0.686804	4.58807	0.878614	3.29169
0.372713	1.44731	0.208431	2.23787	0.6292	4.78488	0.765712	4.64623	0.828284	5.65491	1.00142	2.97871	0.549501	3.26975	0.691087	4.60523	0.881691	3.31322
0.374061	1.44526	0.210516	2.23765	0.633646	4.7579	0.770034	4.63053	0.83358	5.71216			0.552527	3.22664	0.695386	4.62139	0.884788	3.33461
0.375406	1.44365	0.212601	2.23747	0.638066	4.73045	0.774341	4.61619	0.838928	5.76726			0.555513	3.18414	0.699699	4.6365	0.887905	3.35581
0.376751	1.4424	0.214685	2.23731	0.642461	4.70252	0.778635	4.60324	0.844327	5.82019			0.55846	3.1423	0.704025	4.65054	0.891041	3.37689
0.378094	1.44141	0.21677	2.23712	0.646829	4.67413	0.782918	4.59171	0.849773	5.87093			0.561369	3.10114	0.708364	4.66353	0.894197	3.39783
0.379437	1.44074	0.218854	2.23695	0.65117	4.64532	0.787191	4.58155	0.855266	5.91941			0.564239	3.06067	0.712715	4.67548	0.897373	3.41862
0.380779	1.44032	0.220938	2.23675	0.655485	4.61608	0.791456	4.57269	0.860804	5.96574			0.567072	3.02095	0.717077	4.68632	0.900568	3.43924
0.38212	1.44023	0.223022	2.23658	0.659772	4.58649	0.795712	4.56516	0.866383	6.00995			0.569868	2.98194	0.721448	4.6961	0.903781	3.45973
0.383462	1.4404	0.225106	2.23642	0.664031	4.55649	0.799962	4.5589	0.872002	6.05206			0.572628	2.94365	0.725827	4.70491	0.907014	3.48008
0.384804	1.44074	0.227189	2.23627	0.668263	4.52618	0.804207	4.55383	0.87766	6.09212			0.575353	2.90612	0.730215	4.71261	0.910266	3.50025
0.386147	1.44135	0.229273	2.23612	0.672465	4.49558	0.808448	4.54986	0.883354	6.13016			0.578044	2.8693	0.734609	4.71928	0.913537	3.52034
0.38749	1.44217	0.231356	2.23597	0.67664	4.46467	0.812685	4.54693	0.889083	6.16629			0.5807	2.83324	0.739009	4.72496	0.916826	3.54027
0.388834	1.44317	0.233439	2.23583	0.680785	4.43348	0.816921	4.54502	0.894845	6.20054			0.583323	2.79792	0.743413	4.7296	0.920134	3.56005
0.390179	1.4444	0.235522	2.23568	0.684901	4.40202	0.821155	4.54399	0.900637	6.23297			0.585914	2.76335	0.747822	4.73323	0.92346	3.57968
0.391526	1.44578	0.237605	2.23553	0.688987	4.3704	0.825388	4.54381	0.906459	6.26361			0.588472	2.7295	0.752233	4.73585	0.926804	3.59916
0.392873	1.44735	0.239688	2.23539	0.693045	4.33858	0.829621	4.54438	0.912309	6.2926			0.591	2.6964	0.756646	4.73753	0.930166	3.61853
0.394223	1.44905	0.24177	2.23528	0.697072	4.30656	0.833856	4.54561	0.918185	6.31991			0.593497	2.66406	0.761061	4.7383	0.933547	3.63778
0.395574	1.45089	0.243853	2.23515	0.701069	4.2744	0.838092	4.54751	0.924085	6.34557			0.595964	2.6324	0.765476	4.73806	0.936945	3.65685
0.396926	1.45295	0.245935	2.23501	0.705037	4.2421	0.84233	4.54989	0.930009	6.36968			0.598402	2.60145	0.76989	4.73688	0.940361	3.67576
