Sym0		Asym0		Sym1		Sym2		Asym1	
472  Points		490  Points		473  Points		207  Points		390  Points	
Freq (MHz)	Vph (m/ms)	Freq (MHz)	Vph (m/ms)	Freq (MHz)	Vph (m/ms)	Freq (MHz)	Vph (m/ms)	Freq (MHz)	Vph (m/ms)
0.00809404	9.55047	0.000719798	0.313895	0.00442336	9.55077	0.279509	17188.5	0.139827	299.208
0.0169903	9.54941	0.00140687	0.436264	0.0133206	9.54997	0.279614	294.966	0.140407	100.361
0.0258824	9.54757	0.00230178	0.553777	0.0222147	9.54842	0.279924	148.924	0.141558	60.7357
0.0347682	9.54493	0.00338635	0.66553	0.0311034	9.5461	0.280436	99.7515	0.143262	43.9131
0.0436454	9.54147	0.00464049	0.770859	0.0399844	9.543	0.281147	75.1118	0.145499	34.6913
0.0525116	9.5372	0.00604364	0.869389	0.0488555	9.53907	0.282051	60.3352	0.148239	28.9201
0.0613643	9.53207	0.00757585	0.961002	0.0577141	9.5343	0.283143	50.5033	0.151451	25.0022
0.0702008	9.52603	0.00921798	1.04572	0.0665575	9.52863	0.284417	43.5013	0.155102	22.1917
0.0790181	9.51903	0.0109529	1.12376	0.0753831	9.52204	0.285863	38.269	0.159157	20.0934
0.0878129	9.51102	0.0127649	1.1954	0.0841876	9.51445	0.287472	34.2167	0.163584	18.4787
0.096582	9.50194	0.0146408	1.26105	0.0929679	9.50583	0.289235	30.9898	0.168349	17.2061
0.105321	9.4917	0.0165688	1.32109	0.10172	9.49607	0.291139	28.3625	0.173422	16.1835
0.114027	9.48022	0.0185392	1.37598	0.11044	9.48511	0.293173	26.1841	0.178775	15.3485
0.122693	9.46738	0.0205436	1.42613	0.119123	9.47284	0.295325	24.3501	0.184379	14.6573
0.131315	9.45307	0.0223127	1.4663	0.127764	9.45916	0.297582	22.7858	0.190212	14.0783
0.139886	9.43714	0.0238341	1.49814	0.136357	9.44391	0.299932	21.4365	0.196251	13.5882
0.1484	9.41943	0.0251001	1.52292	0.144895	9.42696	0.302364	20.2611	0.202475	13.1696
0.156847	9.39975	0.0261053	1.54159	0.153371	9.40812	0.304867	19.2284	0.208865	12.809
0.16522	9.37789	0.0268466	1.55481	0.161776	9.38719	0.307434	18.314	0.215406	12.4961
0.173507	9.35361	0.0273219	1.56306	0.170099	9.36394	0.310056	17.4991	0.222081	12.2227
0.181695	9.32661	0.0280063	1.57463	0.17833	9.33809	0.312732	16.7683	0.228877	11.9823
0.189772	9.29657	0.0287514	1.58684	0.186455	9.30935	0.315462	16.1099	0.23578	11.7696
0.19772	9.26315	0.0297669	1.60286	0.194458	9.27737	0.318249	15.5141	0.24278	11.5805
0.205521	9.22591	0.0310541	1.62218	0.202322	9.24176	0.321101	14.9731	0.249866	11.4113
0.213154	9.18443	0.0326144	1.64423	0.210027	9.20209	0.324033	14.4807	0.257028	11.2593
0.220596	9.13823	0.0344488	1.66842	0.21755	9.15789	0.327062	14.0318	0.264257	11.1221
0.22782	9.08679	0.0365579	1.69413	0.224868	9.10867	0.330209	13.6223	0.271545	10.9976
0.234799	9.02962	0.0386701	1.71784	0.231952	9.05393	0.333501	13.2489	0.278884	10.8841
0.241505	8.96623	0.0407843	1.73975	0.238774	8.99316	0.336967	12.9088	0.286266	10.7802
0.247908	8.89622	0.0428998	1.76004	0.245305	8.92592	0.340639	12.5997	0.293685	10.6847
0.253981	8.81929	0.0450158	1.77886	0.251517	8.85188	0.344548	12.3198	0.301135	10.5966
0.259701	8.73531	0.0471319	1.79634	0.257385	8.77081	0.348725	12.0671	0.308609	10.5148
0.265051	8.64436	0.0492476	1.81261	0.26289	8.68271	0.353196	11.8401	0.316101	10.4387
0.270021	8.54674	0.0513627	1.82779	0.268017	8.58779	0.357982	11.6371	0.323605	10.3676
0.27461	8.443	0.0534771	1.84196	0.272762	8.48649	0.363095	11.4563	0.331117	10.3007
0.278825	8.33388	0.0555905	1.85521	0.27713	8.37949	0.368539	11.296	0.338629	10.2377
0.282683	8.22027	0.0577028	1.86764	0.281133	8.26762	0.374309	11.1543	0.346138	10.178
0.286205	8.10315	0.059814	1.8793	0.284791	8.15183	0.380391	11.0294	0.353637	10.1213
0.289418	7.98352	0.0619239	1.89026	0.288128	8.03312	0.386766	10.9192	0.361122	10.067
0.29235	7.86234	0.0640328	1.90058	0.290797	7.92805	0.39341	10.8221	0.368586	10.015
0.295031	7.74049	0.0661405	1.91031	0.29291	7.83779	0.400295	10.7363	0.376024	9.96482
0.297489	7.61873	0.068247	1.9195	0.294555	7.76292	0.407394	10.6604	0.38343	9.91625
0.299749	7.49773	0.0703525	1.92819	0.295795	7.70371	0.41468	10.5928	0.390799	9.86902
0.301838	7.37802	0.0724568	1.93641	0.296674	7.66021	0.422129	10.5324	0.398124	9.82289
0.303776	7.26005	0.0745601	1.94421	0.297222	7.63241	0.429716	10.4781	0.4054	9.77764
0.305582	7.14415	0.0766623	1.95162	0.297993	7.59251	0.437422	10.4291	0.412619	9.73305
0.307275	7.03058	0.0787636	1.95866	0.298807	7.54925	0.445227	10.3845	0.419776	9.68894
0.308868	6.91952	0.080864	1.96535	0.299877	7.49064	0.453113	10.3437	0.426864	9.64511
0.310375	6.81111	0.0829635	1.97173	0.301173	7.41698	0.461067	10.306	0.433875	9.6014
0.311806	6.70543	0.0850621	1.97781	0.302661	7.32871	0.469075	10.2711	0.440802	9.55764
0.313173	6.60253	0.08716	1.98362	0.304308	7.22651	0.477125	10.2385	0.447639	9.51368
0.314482	6.50241	0.0892571	1.98917	0.30608	7.11125	0.485207	10.2079	0.454376	9.46938
0.315742	6.40508	0.0913534	1.99447	0.307742	6.99839	0.493311	10.1788	0.461008	9.42459
0.31696	6.3105	0.0934491	1.99955	0.309309	6.88808	0.501428	10.1512	0.467526	9.37919
0.318139	6.21863	0.0955441	2.00442	0.310793	6.78045	0.509551	10.1246	0.473923	9.33308
0.319287	6.12943	0.0976385	2.00909	0.312205	6.67557	0.517673	10.0991	0.480191	9.28614
0.320406	6.04283	0.0997323	2.01357	0.313555	6.57346	0.525786	10.0742	0.486324	9.23828
0.3215	5.95877	0.101826	2.01788	0.314849	6.47415	0.533885	10.05	0.492314	9.18944
0.322574	5.87718	0.103918	2.02202	0.316096	6.37761	0.541964	10.0262	0.498156	9.13954
0.323629	5.79799	0.106011	2.026	0.317302	6.28382	0.550018	10.0028	0.503844	9.08854
0.324669	5.72112	0.108102	2.02983	0.318472	6.19272	0.55804	9.97962	0.509374	9.03641
0.325696	5.64651	0.110194	2.03353	0.319611	6.10427	0.566027	9.95656	0.51474	8.98314
0.326711	5.57408	0.112285	2.03709	0.320723	6.01841	0.573973	9.93353	0.519941	8.92873
0.327717	5.50375	0.114375	2.04052	0.321811	5.93507	0.581873	9.91046	0.524975	8.87319
0.328715	5.43547	0.116465	2.04384	0.322879	5.85417	0.589725	9.88728	0.529839	8.81657
0.329707	5.36916	0.118555	2.04704	0.32393	5.77566	0.597522	9.86393	0.534535	8.75891
0.330695	5.30475	0.120645	2.05014	0.324965	5.69944	0.605261	9.84034	0.539062	8.70028
0.331678	5.24217	0.122734	2.05313	0.325989	5.62547	0.612937	9.81645	0.543424	8.64075
0.332658	5.18137	0.124822	2.05603	0.327001	5.55365	0.620548	9.79222	0.547623	8.5804
0.333637	5.12228	0.126911	2.05884	0.328005	5.48392	0.628089	9.76761	0.551662	8.51932
0.334615	5.06484	0.128999	2.06155	0.329001	5.41621	0.635556	9.74258	0.555546	8.4576
0.335592	5.009	0.131087	2.06418	0.329992	5.35045	0.642946	9.71708	0.559279	8.39535
0.336571	4.9547	0.133175	2.06674	0.330978	5.28657	0.650256	9.69109	0.562866	8.33266
0.33755	4.90188	0.135262	2.06921	0.33196	5.22451	0.657481	9.66458	0.565877	8.27774
0.338531	4.8505	0.137349	2.07162	0.33294	5.16421	0.664619	9.63752	0.568363	8.23078
0.339514	4.80051	0.139436	2.07395	0.333918	5.1056	0.671667	9.60988	0.570364	8.19186
0.3405	4.75185	0.141523	2.07621	0.334896	5.04863	0.678622	9.58166	0.571912	8.16105
0.341489	4.70448	0.14361	2.07842	0.335874	4.99324	0.685479	9.55282	0.573031	8.13838
0.342482	4.65837	0.145696	2.08056	0.336852	4.93937	0.692238	9.52335	0.57374	8.12387
0.343478	4.61345	0.147782	2.08264	0.337832	4.88697	0.698895	9.49325	0.574747	8.103
0.344479	4.56971	0.149868	2.08466	0.338813	4.83599	0.705447	9.46251	0.575827	8.08032
0.345484	4.52709	0.151954	2.08663	0.339797	4.78639	0.711893	9.4311	0.577272	8.04949
0.346494	4.48556	0.154039	2.08855	0.340784	4.7381	0.71823	9.39904	0.579061	8.0105
0.347509	4.44508	0.156125	2.09042	0.341774	4.6911	0.724456	9.36632	0.581169	7.96342
0.348528	4.40563	0.15821	2.09224	0.342768	4.64533	0.730569	9.33293	0.583567	7.9083
0.349554	4.36715	0.160295	2.09402	0.343765	4.60076	0.736568	9.29889	0.586225	7.84526
0.350585	4.32963	0.16238	2.09574	0.344767	4.55734	0.742452	9.2642	0.588786	7.7825
0.351621	4.29304	0.164465	2.09743	0.345774	4.51504	0.748219	9.22887	0.591257	7.72009
0.352664	4.25734	0.16655	2.09908	0.346785	4.47382	0.753868	9.19291	0.593642	7.65807
0.353712	4.2225	0.168634	2.10068	0.347801	4.43364	0.7594	9.15633	0.595946	7.59649
0.354766	4.1885	0.170719	2.10225	0.348823	4.39447	0.764813	9.11916	0.598175	7.5354
0.355827	4.15532	0.172803	2.10378	0.34985	4.35627	0.770108	9.0814	0.600331	7.47484
0.356894	4.12291	0.174887	2.10528	0.350882	4.31902	0.775284	9.04309	0.60242	7.41483
0.357967	4.09128	0.176972	2.10674	0.35192	4.28269	0.780343	9.00425	0.604445	7.3554
0.359046	4.06038	0.179056	2.10816	0.352964	4.24724	0.785285	8.96489	0.60641	7.29659
0.360132	4.0302	0.18114	2.10956	0.354014	4.21264	0.790111	8.92506	0.608319	7.23841
0.361225	4.00071	0.183223	2.11092	0.355071	4.17888	0.794822	8.88477	0.610174	7.18088
0.362324	3.9719	0.185307	2.11225	0.356133	4.14592	0.79942	8.84406	0.61198	7.12402
0.363287	3.94732	0.187391	2.11356	0.357202	4.11374	0.803906	8.80295	0.613738	7.06783
0.364112	3.92676	0.189474	2.11483	0.358277	4.08232	0.808282	8.76148	0.615452	7.01233
0.364797	3.91001	0.191558	2.11608	0.359358	4.05163	0.81255	8.71968	0.617125	6.95753
0.365341	3.89694	0.193641	2.11731	0.360446	4.02165	0.816183	8.68301	0.618759	6.90343
0.365741	3.88741	0.195724	2.1185	0.36154	3.99236	0.819217	8.65159	0.620355	6.85004
0.365998	3.88136	0.197808	2.11968	0.362641	3.96374	0.821684	8.6255	0.621917	6.79736
0.366368	3.8727	0.199891	2.12082	0.363749	3.93576	0.823607	8.60481	0.623446	6.74538
0.366771	3.86337	0.201974	2.12195	0.364863	3.90842	0.825006	8.58957	0.624945	6.69412
0.36732	3.8508	0.204057	2.12305	0.365984	3.88169	0.825894	8.5798	0.626415	6.64356
0.368017	3.8351	0.20614	2.12413	0.367112	3.85555	0.827163	8.56574	0.627857	6.5937
0.368863	3.81639	0.208222	2.12519	0.368246	3.82998	0.82853	8.55043	0.629274	6.54455
0.36986	3.79483	0.210305	2.12623	0.369387	3.80498	0.830369	8.52957	0.630667	6.49609
0.37101	3.77058	0.212388	2.12725	0.370535	3.78052	0.832663	8.50314	0.632037	6.44832
0.372168	3.74687	0.21447	2.12825	0.371689	3.75659	0.835389	8.47111	0.633387	6.40124
0.373331	3.72366	0.216553	2.12923	0.372851	3.73317	0.838522	8.43345	0.634716	6.35483
0.374502	3.70094	0.218636	2.13019	0.374018	3.71025	0.842034	8.39015	0.636026	6.3091
0.375679	3.6787	0.220718	2.13113	0.375193	3.68782	0.845458	8.34678	0.637318	6.26403
0.376863	3.65693	0.2228	2.13206	0.376374	3.66586	0.848797	8.30337	0.638594	6.21962
0.378054	3.63562	0.224883	2.13297	0.377562	3.64436	0.852054	8.25995	0.639855	6.17585
0.379251	3.61475	0.226965	2.13386	0.378757	3.6233	0.855231	8.21653	0.641101	6.13272
0.380455	3.5943	0.229047	2.13474	0.379958	3.60268	0.85833	8.17315	0.642332	6.09023
0.381666	3.57428	0.231129	2.1356	0.381166	3.58249	0.861354	8.12982	0.643551	6.04836
0.382883	3.55466	0.233212	2.13645	0.38238	3.5627	0.864306	8.08657	0.644758	6.0071
0.384106	3.53544	0.235294	2.13728	0.383601	3.54332	0.867188	8.04342	0.645954	5.96645
0.385336	3.5166	0.237376	2.1381	0.384828	3.52433	0.870002	8.00038	0.647139	5.92639
0.386573	3.49815	0.239458	2.1389	0.386062	3.50571	0.87275	7.95747	0.648314	5.88692
0.387816	3.48005	0.24154	2.13969	0.387303	3.48747	0.875435	7.91472	0.649479	5.84803
0.389066	3.46232	0.243622	2.14047	0.388549	3.46959	0.878059	7.87213	0.650636	5.80971
0.390321	3.44493	0.245703	2.14123	0.389802	3.45206	0.880624	7.82973	0.651785	5.77195
0.391584	3.42788	0.247785	2.14198	0.391062	3.43488	0.883132	7.78752	0.652926	5.73474
0.392852	3.41117	0.249867	2.14272	0.392328	3.41802	0.885585	7.74551	0.65406	5.69807
0.394127	3.39477	0.251949	2.14345	0.3936	3.4015	0.887985	7.70373	0.655187	5.66193
0.395408	3.37869	0.25403	2.14416	0.394879	3.38529	0.890334	7.66217	0.656309	5.62632
0.396695	3.36292	0.256112	2.14486	0.396163	3.36939	0.892634	7.62086	0.657424	5.59123
0.397988	3.34744	0.258194	2.14556	0.397454	3.35379	0.894886	7.5798	0.658535	5.55664
0.399288	3.33226	0.260275	2.14624	0.398751	3.33849	0.897093	7.53899	0.65964	5.52255
0.400593	3.31736	0.262357	2.14691	0.400054	3.32347	0.899255	7.49846	0.660741	5.48896
0.401905	3.30274	0.264438	2.14757	0.401363	3.30874	0.901376	7.45819	0.661838	5.45584
0.403222	3.28839	0.26652	2.14822	0.402678	3.29428	0.903455	7.41821	0.662931	5.4232
0.404546	3.2743	0.268601	2.14886	0.403999	3.28008	0.905495	7.37851	0.664021	5.39103
0.405875	3.26048	0.270683	2.14949	0.405326	3.26615	0.907497	7.33911	0.665108	5.35931
0.407211	3.2469	0.272764	2.15011	0.406659	3.25247	0.909462	7.3	0.666191	5.32804
0.408552	3.23357	0.274846	2.15072	0.407998	3.23904	0.911393	7.26119	0.667272	5.29721
0.409898	3.22048	0.276927	2.15132	0.409342	3.22586	0.913289	7.22269	0.668351	5.26682
0.411251	3.20763	0.279008	2.15191	0.410692	3.21291	0.915153	7.18449	0.669428	5.23686
0.412609	3.19501	0.281089	2.1525	0.412048	3.20019	0.916985	7.1466	0.670503	5.20731
0.413973	3.18261	0.283171	2.15308	0.41341	3.1877	0.918788	7.10903	0.671576	5.17818
0.415343	3.17043	0.285252	2.15364	0.414777	3.17543	0.920561	7.07177	0.672648	5.14945
0.416718	3.15846	0.287333	2.1542	0.41615	3.16337	0.922306	7.03483	0.673719	5.12113
0.418098	3.1467	0.289414	2.15475	0.417528	3.15153	0.924025	6.9982	0.674789	5.09319
0.419484	3.13515	0.291495	2.1553	0.418912	3.13989	0.925717	6.96189	0.675858	5.06563
0.420876	3.1238	0.293577	2.15583	0.420301	3.12846	0.927384	6.9259	0.676927	5.03846
0.422273	3.11264	0.295658	2.15636	0.421696	3.11722	0.929028	6.89024	0.677995	5.01165
0.423675	3.10168	0.297739	2.15688	0.423096	3.10618	0.930648	6.85489	0.679063	4.98522
0.425082	3.0909	0.29982	2.1574	0.424501	3.09532	0.932246	6.81985	0.680131	4.95914
0.426495	3.0803	0.301901	2.15791	0.425911	3.08465	0.933823	6.78514	0.681198	4.93341
0.427913	3.06988	0.303982	2.15841	0.427327	3.07416	0.935379	6.75075	0.682267	4.90803
0.429336	3.05964	0.306063	2.1589	0.428748	3.06385	0.936916	6.71667	0.683335	4.88299
0.430764	3.04957	0.308144	2.15939	0.430174	3.05371	0.938433	6.68291	0.684404	4.85828
0.432197	3.03967	0.310225	2.15987	0.431605	3.04373	0.939932	6.64947	0.685474	4.8339
0.433635	3.02993	0.312305	2.16034	0.433041	3.03393	0.941413	6.61634	0.686544	4.80985
0.435078	3.02035	0.314386	2.16081	0.434483	3.02428	0.942877	6.58352	0.687615	4.78611
0.436527	3.01093	0.316467	2.16127	0.435929	3.0148	0.944325	6.55101	0.688688	4.76269
0.43798	3.00166	0.318548	2.16173	0.43738	3.00547	0.945758	6.51882	0.689761	4.73957
0.439438	2.99254	0.320629	2.16218	0.438836	2.99629	0.947175	6.48693	0.690835	4.71676
0.4409	2.98357	0.32271	2.16262	0.440296	2.98726	0.948577	6.45534	0.691911	4.69424
0.442368	2.97475	0.32479	2.16306	0.441762	2.97837	0.949966	6.42406	0.692988	4.67202
0.44384	2.96607	0.326871	2.16349	0.443232	2.96963	0.951341	6.39308	0.694066	4.65008
0.445317	2.95752	0.328952	2.16392	0.444707	2.96103	0.952704	6.3624	0.695146	4.62843
0.446798	2.94911	0.331033	2.16434	0.446186	2.95256	0.954053	6.33202	0.696228	4.60705
0.448284	2.94084	0.333113	2.16476	0.447671	2.94423	0.955391	6.30193	0.697311	4.58594
0.449775	2.93269	0.335194	2.16517	0.449159	2.93603	0.956718	6.27213	0.698396	4.56511
0.45127	2.92467	0.337275	2.16558	0.450653	2.92796	0.958033	6.24262	0.699483	4.54453
0.452769	2.91678	0.339355	2.16598	0.45215	2.92002	0.959338	6.2134	0.700572	4.52422
0.454274	2.90901	0.341436	2.16638	0.453653	2.9122	0.960633	6.18447	0.701663	4.50416
0.455782	2.90136	0.343517	2.16677	0.455159	2.9045	0.961917	6.15582	0.702755	4.48436
0.457295	2.89382	0.345597	2.16716	0.45667	2.89692	0.963193	6.12745	0.70385	4.4648
0.458812	2.88641	0.347678	2.16754	0.458185	2.88945	0.964459	6.09935	0.704947	4.44548
0.460333	2.8791	0.349758	2.16792	0.459705	2.8821	0.965717	6.07153	0.706046	4.42641
0.461859	2.87191	0.351839	2.1683	0.461229	2.87486	0.966966	6.04398	0.707147	4.40757
0.463388	2.86482	0.353919	2.16867	0.462757	2.86773	0.968208	6.0167	0.708251	4.38896
0.464922	2.85784	0.356	2.16903	0.464289	2.86071	0.969441	5.98969	0.709356	4.37058
0.46646	2.85097	0.35808	2.16939	0.465826	2.85379	0.970668	5.96294	0.710465	4.35242
0.468003	2.8442	0.360161	2.16975	0.467366	2.84698	0.971887	5.93645	0.711575	4.33448
0.469549	2.83753	0.362241	2.1701	0.46891	2.84027	0.9731	5.91023	0.712688	4.31676
0.471099	2.83096	0.364322	2.17045	0.470459	2.83366	0.974306	5.88425	0.713804	4.29926
0.472653	2.82448	0.366402	2.1708	0.472011	2.82714	0.975505	5.85853	0.714922	4.28196
0.474211	2.8181	0.368483	2.17114	0.473568	2.82072	0.976699	5.83307	0.716043	4.26488
0.475773	2.81182	0.370563	2.17147	0.475128	2.8144	0.977887	5.80784	0.717166	4.24799
0.477339	2.80562	0.372643	2.17181	0.476693	2.80817	0.97907	5.78287	0.718291	4.23131
0.478909	2.79952	0.374724	2.17214	0.478261	2.80203	0.980248	5.75814	0.71942	4.21482
0.480482	2.7935	0.376804	2.17246	0.479833	2.79597	0.98142	5.73364	0.720551	4.19853
0.482059	2.78757	0.378885	2.17279	0.481408	2.79001	0.982588	5.70939	0.721685	4.18243
0.48364	2.78173	0.380965	2.17311	0.482988	2.78413	0.983751	5.68537	0.722821	4.16652
0.485225	2.77597	0.383045	2.17342	0.484571	2.77833	0.98491	5.66158	0.72396	4.1508
0.486813	2.77029	0.385126	2.17374	0.486157	2.77262	0.986064	5.63802	0.725102	4.13526
0.488405	2.76469	0.387206	2.17404	0.487748	2.76699	0.987215	5.61469	0.726247	4.11989
0.49	2.75917	0.389286	2.17435	0.489342	2.76143	0.988362	5.59158	0.727395	4.10471
0.491599	2.75372	0.391366	2.17465	0.490939	2.75596	0.989505	5.5687	0.728545	4.0897
0.493202	2.74836	0.393447	2.17495	0.49254	2.75056	0.990645	5.54604	0.729698	4.07486
0.494808	2.74306	0.395527	2.17525	0.494145	2.74524	0.991782	5.52359	0.730854	4.06019
0.496417	2.73784	0.397607	2.17554	0.495753	2.73999	0.992915	5.50135	0.732013	4.04569
0.49803	2.7327	0.399687	2.17583	0.497364	2.73481	0.994046	5.47933	0.733175	4.03135
0.499646	2.72762	0.401768	2.17612	0.498979	2.72971	0.995174	5.45752	0.73434	4.01718
0.501266	2.72262	0.403848	2.1764	0.500597	2.72467	0.996299	5.43592	0.735508	4.00316
0.502889	2.71768	0.405928	2.17668	0.502219	2.71971	0.997422	5.41452	0.736678	3.9893
0.504515	2.71281	0.408008	2.17696	0.503844	2.71481	0.998542	5.39332	0.737852	3.9756
0.506144	2.708	0.410089	2.17724	0.505472	2.70998	0.99966	5.37233	0.739028	3.96205
0.507777	2.70326	0.412169	2.17751	0.507103	2.70521	1.00078	5.35153	0.740208	3.94865
0.509413	2.69859	0.414249	2.17778	0.508738	2.70051			0.74139	3.9354
0.511052	2.69397	0.416329	2.17805	0.510376	2.69587			0.742575	3.92229
0.512694	2.68942	0.418409	2.17831	0.512017	2.69129			0.743764	3.90933
0.51434	2.68493	0.420489	2.17858	0.513661	2.68677			0.744955	3.89651
0.515988	2.6805	0.422569	2.17884	0.515308	2.68232			0.74615	3.88383
0.51764	2.67612	0.424649	2.17909	0.516958	2.67792			0.747347	3.87129
0.519294	2.67181	0.42673	2.17935	0.518611	2.67358			0.748547	3.85888
0.520952	2.66755	0.42881	2.1796	0.520267	2.6693			0.74975	3.84661
0.522612	2.66335	0.43089	2.17985	0.521927	2.66507			0.750957	3.83447
0.524276	2.6592	0.43297	2.1801	0.523589	2.6609			0.752166	3.82246
0.525942	2.6551	0.43505	2.18034	0.525254	2.65678			0.753379	3.81058
0.527611	2.65106	0.43713	2.18058	0.526922	2.65272			0.754594	3.79882
0.529283	2.64707	0.43921	2.18082	0.528593	2.64871			0.755812	3.78719
0.530958	2.64313	0.44129	2.18106	0.530267	2.64475			0.757034	3.77569
0.532636	2.63924	0.44337	2.1813	0.531943	2.64084			0.758258	3.7643
0.534316	2.6354	0.44545	2.18153	0.533623	2.63698			0.759486	3.75304
0.536	2.63161	0.44753	2.18176	0.535305	2.63317			0.760716	3.74189
0.537686	2.62787	0.44961	2.18199	0.53699	2.62941			0.76195	3.73086
0.539375	2.62417	0.45169	2.18222	0.538678	2.62569			0.763186	3.71994
0.541066	2.62052	0.45377	2.18245	0.540368	2.62202			0.764426	3.70914
0.54276	2.61692	0.45585	2.18267	0.542061	2.6184			0.765668	3.69845
0.544457	2.61336	0.45793	2.18289	0.543757	2.61482			0.766914	3.68787
0.546156	2.60985	0.46001	2.18311	0.545455	2.61129			0.768163	3.6774
0.547858	2.60637	0.46209	2.18333	0.547156	2.6078			0.769414	3.66703
0.549563	2.60295	0.46417	2.18354	0.548859	2.60435			0.770669	3.65678
0.55127	2.59956	0.46625	2.18375	0.550565	2.60095			0.771927	3.64662
0.552979	2.59621	0.46833	2.18397	0.552274	2.59759			0.773187	3.63657
0.554691	2.59291	0.47041	2.18417	0.553985	2.59427			0.774451	3.62662
0.556406	2.58965	0.47249	2.18438	0.555698	2.59099			0.775717	3.61678
0.558123	2.58642	0.474569	2.18459	0.557414	2.58775			0.776987	3.60703
0.559842	2.58324	0.476649	2.18479	0.559133	2.58455			0.77826	3.59737
0.561564	2.58009	0.478729	2.18499	0.560854	2.58138			0.779535	3.58782
0.563288	2.57698	0.480809	2.1852	0.562577	2.57826			0.780814	3.57836
