Sym0		Asym0		Sym1		Sym2		Asym1	
473  Points		491  Points		473  Points		209  Points		390  Points	
Freq (MHz)	Vph (m/ms)	Freq (MHz)	Vph (m/ms)	Freq (MHz)	Vph (m/ms)	Freq (MHz)	Vph (m/ms)	Freq (MHz)	Vph (m/ms)
0.000901711	9.51402	0.000281272	0.196591	0.00586735	9.5142	0.279542	524.047	0.139962	176.745
0.00976573	9.51388	0.000760587	0.321949	0.0147303	9.51329	0.279758	190.945	0.140737	81.6537
0.0186275	9.5127	0.00146117	0.443568	0.0235898	9.51168	0.280174	116.894	0.142073	53.5059
0.0274847	9.51073	0.00236779	0.560313	0.0324437	9.50931	0.280788	84.3584	0.143953	40.1321
0.0363355	9.50803	0.00346223	0.671295	0.0412897	9.50616	0.281595	66.0989	0.146351	32.3881
0.0451774	9.50452	0.00472445	0.77587	0.0501257	9.5022	0.28259	54.429	0.149239	27.3815
0.0540081	9.5002	0.00613418	0.8737	0.0589491	9.49741	0.283766	46.3398	0.152586	23.9085
0.0628251	9.49502	0.00767146	0.964646	0.0677573	9.49174	0.285116	40.4116	0.156357	21.3784
0.0716258	9.48895	0.00931753	1.04876	0.0765475	9.48515	0.28663	35.8871	0.160519	19.4675
0.0804073	9.48195	0.0110554	1.12626	0.0853168	9.47759	0.288298	32.3252	0.165038	17.9836
0.0891662	9.47395	0.0128696	1.19742	0.0940617	9.469	0.29011	29.4517	0.169885	16.8056
0.0978993	9.46488	0.014747	1.26265	0.102779	9.4593	0.292054	27.087	0.175028	15.8532
0.106603	9.45467	0.0166761	1.32233	0.111463	9.44841	0.294117	25.1087	0.180439	15.0715
0.115272	9.44322	0.018647	1.3769	0.120111	9.43623	0.296288	23.4304	0.186094	14.4215
0.123902	9.43043	0.0206518	1.42677	0.128717	9.42263	0.298553	21.9894	0.191968	13.8749
0.132487	9.41617	0.022421	1.46673	0.137275	9.40748	0.300902	20.7392	0.198041	13.4107
0.141022	9.4003	0.0239426	1.49842	0.145779	9.39064	0.303322	19.6445	0.204291	13.013
0.149499	9.38265	0.0252085	1.5231	0.15422	9.37192	0.305805	18.6782	0.210703	12.6695
0.15791	9.36304	0.0262137	1.54168	0.16259	9.35111	0.308343	17.8192	0.217259	12.3707
0.166246	9.34124	0.026955	1.55485	0.170878	9.32798	0.310932	17.0508	0.223944	12.109
0.174495	9.31701	0.0274303	1.56306	0.179074	9.30226	0.313572	16.3597	0.230746	11.8783
0.182646	9.29005	0.0281146	1.57459	0.187163	9.27364	0.316263	15.7352	0.237652	11.6739
0.190683	9.26004	0.0288598	1.58675	0.19513	9.24176	0.319014	15.169	0.244651	11.4918
0.198591	9.22661	0.0298752	1.6027	0.202958	9.20623	0.321836	14.6539	0.251732	11.3286
0.206351	9.18934	0.0311622	1.62195	0.210625	9.16662	0.324744	14.1846	0.258887	11.1818
0.213941	9.14779	0.0327224	1.64393	0.218109	9.12245	0.327759	13.7565	0.266106	11.0489
0.221337	9.10145	0.0345567	1.66805	0.225386	9.07322	0.330907	13.3659	0.273381	10.9283
0.228513	9.04982	0.0366657	1.69368	0.232426	9.01839	0.334216	13.01	0.280706	10.8182
0.235441	8.99238	0.0387777	1.71733	0.239202	8.95748	0.337716	12.6861	0.288072	10.7172
0.242091	8.92865	0.0408918	1.7392	0.245684	8.89004	0.341441	12.3923	0.295473	10.6243
0.248434	8.85821	0.0430072	1.75945	0.251843	8.81571	0.345422	12.1268	0.302903	10.5384
0.254443	8.78077	0.0451231	1.77823	0.257655	8.73429	0.349689	11.8877	0.310356	10.4587
0.260096	8.69623	0.0472391	1.79569	0.263099	8.64578	0.354265	11.6736	0.317826	10.3844
0.265374	8.60467	0.0493548	1.81194	0.268164	8.55043	0.359169	11.4826	0.325307	10.3148
0.27027	8.50643	0.0514699	1.82709	0.272845	8.44869	0.364409	11.3131	0.332794	10.2494
0.274783	8.4021	0.0535842	1.84125	0.277147	8.34127	0.369982	11.1633	0.340281	10.1877
0.278923	8.29244	0.0556975	1.85449	0.281085	8.22902	0.375881	11.0312	0.347763	10.1291
0.282706	8.17838	0.0578098	1.86691	0.284678	8.11293	0.382086	10.9148	0.355234	10.0734
0.286156	8.06092	0.0599209	1.87857	0.287953	7.99402	0.388576	10.8124	0.36269	10.0201
0.2893	7.94107	0.062031	1.88952	0.29057	7.88885	0.395323	10.7222	0.370124	9.96886
0.292168	7.8198	0.0641399	1.89985	0.292642	7.79857	0.402301	10.6425	0.377531	9.91945
0.294789	7.69798	0.0662476	1.90958	0.294254	7.72372	0.409481	10.5719	0.384906	9.87156
0.29719	7.57637	0.0683541	1.91877	0.295468	7.66455	0.416837	10.509	0.392242	9.82494
0.2994	7.45561	0.0704596	1.92746	0.296329	7.6211	0.424344	10.4528	0.399533	9.77936
0.301442	7.33625	0.0725639	1.93569	0.296867	7.59333	0.431981	10.4022	0.406774	9.73459
0.303337	7.21869	0.0746672	1.94349	0.297621	7.55349	0.439726	10.3563	0.413958	9.69044
0.305105	7.10327	0.0767695	1.9509	0.298419	7.51031	0.447562	10.3145	0.421078	9.64672
0.306762	6.99023	0.0788708	1.95795	0.299467	7.45182	0.455473	10.2762	0.428127	9.60323
0.308324	6.87974	0.0809711	1.96465	0.300737	7.37833	0.463446	10.2408	0.435099	9.55982
0.309801	6.77194	0.0830707	1.97103	0.302195	7.29031	0.471467	10.2079	0.441985	9.51632
0.311207	6.66688	0.0851694	1.97712	0.303808	7.18844	0.479525	10.1771	0.448779	9.47258
0.31255	6.56462	0.0872672	1.98293	0.305546	7.07362	0.487611	10.148	0.455473	9.42845
0.313838	6.46516	0.0893643	1.98849	0.307177	6.96123	0.495716	10.1205	0.462059	9.38381
0.315078	6.36849	0.0914607	1.9938	0.308716	6.85143	0.503831	10.0941	0.46853	9.33853
0.316278	6.27457	0.0935564	1.99888	0.310174	6.74434	0.511949	10.0688	0.474878	9.29249
0.317441	6.18336	0.0956515	2.00376	0.311562	6.64001	0.520063	10.0443	0.481096	9.2456
0.318574	6.09481	0.0977459	2.00843	0.31289	6.53848	0.528166	10.0205	0.487176	9.19776
0.31968	6.00886	0.0998397	2.01292	0.314165	6.43974	0.536254	9.99726	0.493112	9.14891
0.320763	5.92544	0.101933	2.01723	0.315394	6.34379	0.544319	9.97437	0.498899	9.09898
0.321825	5.84448	0.104026	2.02138	0.316584	6.25058	0.552357	9.95176	0.504529	9.04792
0.322871	5.76591	0.106118	2.02537	0.317739	6.16007	0.560362	9.92932	0.51	8.99572
0.323902	5.68966	0.10821	2.02921	0.318864	6.0722	0.56833	9.90695	0.515306	8.94236
0.32492	5.61564	0.110301	2.03291	0.319964	5.98692	0.576256	9.88458	0.520446	8.88785
0.325928	5.54379	0.112392	2.03647	0.321041	5.90414	0.584136	9.86212	0.525417	8.83221
0.326928	5.47405	0.114483	2.03992	0.322099	5.82381	0.591964	9.83951	0.530218	8.77549
0.32792	5.40632	0.116573	2.04324	0.32314	5.74585	0.599736	9.81668	0.53485	8.71772
0.328907	5.34056	0.118663	2.04645	0.324168	5.67018	0.607449	9.79358	0.539314	8.65898
0.329889	5.27668	0.120752	2.04955	0.325183	5.59674	0.615099	9.77014	0.543612	8.59936
0.330868	5.21463	0.122841	2.05255	0.326189	5.52545	0.62268	9.74633	0.547747	8.53892
0.331845	5.15434	0.12493	2.05545	0.327187	5.45623	0.63019	9.7221	0.551723	8.47777
0.332821	5.09575	0.127018	2.05826	0.328177	5.38903	0.637625	9.69742	0.555544	8.41599
0.333796	5.03879	0.129106	2.06098	0.329163	5.32376	0.644981	9.67224	0.559215	8.3537
0.334771	4.98343	0.131194	2.06362	0.330144	5.26036	0.652255	9.64653	0.562742	8.29099
0.335747	4.92958	0.133282	2.06618	0.331123	5.19878	0.659443	9.62028	0.565702	8.23607
0.336724	4.87722	0.135369	2.06866	0.332099	5.13893	0.666541	9.59344	0.568144	8.18912
0.337704	4.82628	0.137457	2.07107	0.333074	5.08077	0.673548	9.56601	0.57011	8.15022
0.338686	4.77671	0.139544	2.07341	0.334049	5.02424	0.680459	9.53795	0.57163	8.11943
0.339671	4.72847	0.14163	2.07568	0.335024	4.96927	0.687272	9.50926	0.57273	8.09678
0.340659	4.68151	0.143717	2.07788	0.336001	4.91582	0.693984	9.47992	0.573426	8.08228
0.341652	4.63579	0.145803	2.08003	0.336979	4.86383	0.700592	9.44992	0.574415	8.06143
0.342648	4.59126	0.147889	2.08211	0.337959	4.81325	0.707094	9.41925	0.575475	8.03878
0.343648	4.5479	0.149975	2.08414	0.338942	4.76403	0.713488	9.38791	0.576894	8.00798
0.344654	4.50565	0.152061	2.08612	0.339928	4.71613	0.719771	9.35588	0.578651	7.96905
0.345664	4.46447	0.154146	2.08804	0.340917	4.6695	0.725941	9.32318	0.58072	7.92204
0.346679	4.42435	0.156232	2.08991	0.34191	4.62409	0.731998	9.28981	0.583075	7.86703
0.3477	4.38523	0.158317	2.09174	0.342908	4.57987	0.737939	9.25576	0.585683	7.80412
0.348726	4.3471	0.160402	2.09352	0.34391	4.5368	0.743762	9.22105	0.588198	7.74152
0.349758	4.3099	0.162487	2.09525	0.344916	4.49483	0.749468	9.18569	0.590623	7.67927
0.350796	4.27363	0.164572	2.09694	0.345928	4.45394	0.755056	9.14969	0.592965	7.61744
0.35184	4.23823	0.166657	2.09859	0.346945	4.41408	0.760524	9.11306	0.595227	7.55607
0.352889	4.2037	0.168741	2.1002	0.347967	4.37522	0.765873	9.07584	0.597415	7.49519
0.353945	4.17	0.170826	2.10177	0.348994	4.33733	0.771103	9.03803	0.599533	7.43486
0.355008	4.1371	0.17291	2.10331	0.350028	4.30038	0.776215	8.99966	0.601585	7.37509
0.356076	4.10498	0.174994	2.1048	0.351067	4.26433	0.781208	8.96075	0.603574	7.31591
0.357151	4.07362	0.177078	2.10627	0.352112	4.22917	0.786083	8.92134	0.605505	7.25736
0.358233	4.04299	0.179162	2.1077	0.353164	4.19485	0.790843	8.88144	0.607381	7.19945
0.359321	4.01308	0.181246	2.1091	0.354221	4.16136	0.795488	8.8411	0.609205	7.1422
0.360416	3.98385	0.18333	2.11046	0.355285	4.12867	0.800019	8.80033	0.610981	7.08562
0.361517	3.95529	0.185414	2.1118	0.356355	4.09675	0.804439	8.75917	0.61271	7.02972
0.362482	3.93093	0.187497	2.11311	0.357432	4.06558	0.808748	8.71766	0.614397	6.97452
0.363309	3.91054	0.189581	2.11439	0.358515	4.03514	0.812951	8.67583	0.616044	6.92002
0.363995	3.89395	0.191664	2.11564	0.359605	4.00541	0.816526	8.63913	0.617652	6.86622
0.36454	3.88098	0.193748	2.11687	0.360701	3.97635	0.819512	8.60769	0.619224	6.81314
0.364941	3.87154	0.195831	2.11807	0.361804	3.94796	0.821939	8.58159	0.620763	6.76076
0.365199	3.86554	0.197914	2.11924	0.362914	3.92022	0.82383	8.5609	0.62227	6.7091
0.365569	3.85696	0.199997	2.12039	0.364031	3.8931	0.825207	8.54565	0.623748	6.65815
0.365973	3.84772	0.20208	2.12152	0.365154	3.86658	0.826081	8.53587	0.625197	6.6079
0.366523	3.83525	0.204163	2.12263	0.366284	3.84066	0.827328	8.52181	0.626621	6.55836
0.367222	3.81969	0.206246	2.12371	0.36742	3.8153	0.828673	8.5065	0.628019	6.50953
0.36807	3.80114	0.208329	2.12477	0.368564	3.7905	0.830481	8.48564	0.629395	6.46138
0.369069	3.77977	0.210411	2.12581	0.369714	3.76625	0.832736	8.45922	0.630748	6.41393
0.370222	3.75574	0.212494	2.12683	0.370871	3.74251	0.835416	8.4272	0.632081	6.36716
0.371382	3.73223	0.214577	2.12784	0.372035	3.71929	0.838496	8.38955	0.633395	6.32107
0.372549	3.70923	0.216659	2.12882	0.373205	3.69656	0.841947	8.34628	0.63469	6.27565
0.373722	3.68671	0.218742	2.12978	0.374382	3.67431	0.845312	8.30295	0.635969	6.23089
0.374902	3.66467	0.220824	2.13073	0.375566	3.65253	0.848593	8.25958	0.637231	6.18678
0.376089	3.64309	0.222906	2.13166	0.376757	3.6312	0.851792	8.21621	0.638479	6.14332
0.377283	3.62197	0.224989	2.13257	0.377954	3.61032	0.854912	8.17286	0.639712	6.1005
0.378483	3.60128	0.227071	2.13347	0.379158	3.58988	0.857956	8.12955	0.640933	6.05831
0.37969	3.58102	0.229153	2.13435	0.380369	3.56985	0.860926	8.08631	0.64214	6.01674
0.380903	3.56117	0.231235	2.13521	0.381586	3.55023	0.863824	8.04315	0.643337	5.97578
0.382123	3.54172	0.233317	2.13606	0.382809	3.531	0.866654	8.00009	0.644522	5.93543
0.38335	3.52267	0.235399	2.13689	0.38404	3.51217	0.869417	7.95716	0.645697	5.89566
0.384583	3.504	0.237481	2.13771	0.385277	3.49371	0.872115	7.91437	0.646863	5.85649
0.385823	3.48571	0.239563	2.13852	0.38652	3.47562	0.874752	7.87174	0.64802	5.81788
0.387069	3.46778	0.241645	2.13931	0.38777	3.45789	0.877328	7.82928	0.649168	5.77985
0.388321	3.4502	0.243727	2.14009	0.389026	3.44051	0.879846	7.78701	0.650309	5.74237
0.38958	3.43297	0.245809	2.14086	0.390288	3.42346	0.882309	7.74494	0.651442	5.70544
0.390846	3.41607	0.247891	2.14161	0.391557	3.40675	0.884718	7.70308	0.652569	5.66905
0.392117	3.3995	0.249972	2.14235	0.392832	3.39036	0.887075	7.66146	0.65369	5.63319
0.393395	3.38325	0.252054	2.14308	0.394114	3.37429	0.889382	7.62006	0.654804	5.59785
0.394679	3.36732	0.254136	2.14379	0.395401	3.35852	0.89164	7.57892	0.655914	5.56303
0.39597	3.35168	0.256217	2.1445	0.396695	3.34306	0.893853	7.53802	0.657018	5.5287
0.397266	3.33635	0.258299	2.14519	0.397995	3.32788	0.89602	7.4974	0.658118	5.49488
0.398569	3.3213	0.260381	2.14588	0.399301	3.31299	0.898145	7.45704	0.659214	5.46154
0.399878	3.30653	0.262462	2.14655	0.400614	3.29838	0.900228	7.41696	0.660306	5.42868
0.401193	3.29204	0.264544	2.14721	0.401932	3.28404	0.902272	7.37717	0.661394	5.3963
0.402513	3.27782	0.266625	2.14786	0.403256	3.26997	0.904276	7.33766	0.662479	5.36437
0.40384	3.26386	0.268706	2.1485	0.404586	3.25616	0.906244	7.29845	0.663561	5.3329
0.405173	3.25016	0.270788	2.14914	0.405922	3.24259	0.908177	7.25955	0.664641	5.30188
0.406511	3.23671	0.272869	2.14976	0.407264	3.22928	0.910075	7.22094	0.665718	5.2713
0.407856	3.2235	0.27495	2.15037	0.408611	3.2162	0.91194	7.18264	0.666794	5.24114
0.409206	3.21053	0.277032	2.15098	0.409964	3.20336	0.913773	7.14465	0.667867	5.21142
0.410561	3.19779	0.279113	2.15157	0.411324	3.19075	0.915576	7.10697	0.668939	5.18211
0.411923	3.18528	0.281194	2.15216	0.412688	3.17837	0.91735	7.06961	0.670009	5.1532
0.41329	3.17299	0.283275	2.15274	0.414059	3.1662	0.919095	7.03257	0.671078	5.1247
0.414663	3.16092	0.285356	2.1533	0.415434	3.15425	0.920813	6.99584	0.672147	5.0966
0.416041	3.14906	0.287438	2.15387	0.416816	3.14251	0.922505	6.95943	0.673214	5.06889
0.417425	3.13741	0.289519	2.15442	0.418203	3.13097	0.924171	6.92334	0.674281	5.04155
0.418814	3.12596	0.2916	2.15497	0.419595	3.11964	0.925814	6.88757	0.675348	5.01459
0.420209	3.11471	0.293681	2.1555	0.420993	3.1085	0.927433	6.85213	0.676414	4.988
0.421609	3.10366	0.295762	2.15603	0.422396	3.09755	0.92903	6.817	0.67748	4.96178
0.423014	3.09279	0.297843	2.15656	0.423804	3.08678	0.930605	6.78219	0.678547	4.93591
0.424425	3.08211	0.299924	2.15707	0.425218	3.0762	0.932159	6.7477	0.679613	4.91038
0.425841	3.07161	0.302005	2.15758	0.426637	3.0658	0.933694	6.71353	0.68068	4.88521
0.427262	3.06129	0.304086	2.15808	0.428061	3.05558	0.935209	6.67968	0.681748	4.86037
0.428688	3.05114	0.306167	2.15858	0.42949	3.04553	0.936706	6.64614	0.682816	4.83586
0.43012	3.04116	0.308248	2.15907	0.430924	3.03564	0.938185	6.61292	0.683884	4.81168
0.431556	3.03134	0.310328	2.15955	0.432363	3.02592	0.939647	6.58001	0.684954	4.78782
0.432998	3.02169	0.312409	2.16002	0.433807	3.01636	0.941093	6.54742	0.686025	4.76428
0.434444	3.0122	0.31449	2.16049	0.435256	3.00695	0.942523	6.51514	0.687096	4.74104
0.435895	3.00287	0.316571	2.16096	0.43671	2.9977	0.943937	6.48316	0.688169	4.71812
0.437352	2.99368	0.318652	2.16141	0.438169	2.98861	0.945338	6.45149	0.689243	4.69549
0.438813	2.98465	0.320732	2.16187	0.439633	2.97965	0.946724	6.42013	0.690319	4.67315
0.440278	2.97576	0.322813	2.16231	0.441102	2.97085	0.948096	6.38907	0.691396	4.65111
0.441749	2.96702	0.324894	2.16275	0.442575	2.96218	0.949456	6.35831	0.692474	4.62935
0.443224	2.95842	0.326975	2.16319	0.444053	2.95366	0.950803	6.32785	0.693555	4.60787
0.444704	2.94995	0.329055	2.16362	0.445535	2.94526	0.952138	6.29769	0.694636	4.58666
0.446189	2.94162	0.331136	2.16404	0.447023	2.93701	0.953462	6.26782	0.69572	4.56573
0.447678	2.93342	0.333217	2.16446	0.448514	2.92888	0.954774	6.23824	0.696805	4.54506
0.449172	2.92534	0.335297	2.16487	0.450011	2.92088	0.956076	6.20895	0.697893	4.52466
0.45067	2.9174	0.337378	2.16528	0.451511	2.913	0.957368	6.17994	0.698982	4.50451
0.452173	2.90958	0.339458	2.16568	0.453016	2.90525	0.95865	6.15122	0.700073	4.48462
0.45368	2.90188	0.341539	2.16608	0.454526	2.89762	0.959922	6.12279	0.701167	4.46497
0.455191	2.8943	0.34362	2.16647	0.45604	2.8901	0.961186	6.09463	0.702262	4.44558
0.456707	2.88683	0.3457	2.16686	0.457558	2.8827	0.962441	6.06674	0.70336	4.42642
0.458227	2.87949	0.347781	2.16725	0.459081	2.87542	0.963687	6.03913	0.70446	4.4075
0.459752	2.87225	0.349861	2.16763	0.460607	2.86824	0.964926	6.01179	0.705563	4.38881
0.46128	2.86512	0.351942	2.168	0.462138	2.86118	0.966157	5.98472	0.706667	4.37036
0.462813	2.8581	0.354022	2.16837	0.463674	2.85422	0.96738	5.95792	0.707774	4.35212
0.46435	2.85119	0.356102	2.16874	0.465213	2.84736	0.968597	5.93137	0.708884	4.33412
0.465891	2.84438	0.358183	2.1691	0.466756	2.84061	0.969806	5.90509	0.709996	4.31633
0.467436	2.83767	0.360263	2.16946	0.468303	2.83396	0.971009	5.87906	0.71111	4.29875
0.468985	2.83106	0.362344	2.16981	0.469855	2.8274	0.972206	5.85329	0.712227	4.28139
0.470538	2.82455	0.364424	2.17016	0.47141	2.82095	0.973398	5.82777	0.713347	4.26424
0.472096	2.81814	0.366505	2.17051	0.472969	2.81459	0.974583	5.8025	0.714469	4.24729
0.473657	2.81182	0.368585	2.17085	0.474533	2.80832	0.975763	5.77748	0.715593	4.23055
0.475221	2.80559	0.370665	2.17119	0.4761	2.80214	0.976938	5.7527	0.716721	4.214
0.47679	2.79945	0.372746	2.17153	0.477671	2.79605	0.978108	5.72816	0.717851	4.19765
0.478363	2.79341	0.374826	2.17186	0.479245	2.79006	0.979273	5.70387	0.718984	4.18149
0.479939	2.78745	0.376906	2.17218	0.480824	2.78414	0.980433	5.6798	0.720119	4.16553
0.481519	2.78157	0.378987	2.17251	0.482406	2.77832	0.981589	5.65597	0.721258	4.14975
0.483103	2.77578	0.381067	2.17283	0.483992	2.77257	0.982742	5.63237	0.722399	4.13415
0.48469	2.77007	0.383147	2.17315	0.485581	2.76691	0.98389	5.609	0.723543	4.11874
0.486281	2.76445	0.385227	2.17346	0.487174	2.76133	0.985034	5.58586	0.724689	4.1035
0.487876	2.7589	0.387308	2.17377	0.488771	2.75582	0.986175	5.56294	0.725839	4.08844
0.489474	2.75343	0.389388	2.17408	0.490371	2.7504	0.987312	5.54024	0.726992	4.07355
0.491076	2.74804	0.391468	2.17438	0.491975	2.74505	0.988447	5.51775	0.728147	4.05884
0.492681	2.74272	0.393548	2.17468	0.493582	2.73977	0.989578	5.49549	0.729305	4.04429
0.49429	2.73748	0.395629	2.17498	0.495193	2.73457	0.990706	5.47343	0.730466	4.02991
0.495902	2.73231	0.397709	2.17527	0.496807	2.72944	0.991832	5.45159	0.73163	4.01569
0.497518	2.72721	0.399789	2.17556	0.498424	2.72438	0.992955	5.42995	0.732797	4.00163
0.499137	2.72218	0.401869	2.17585	0.500045	2.71939	0.994075	5.40853	0.733967	3.98773
0.500759	2.71722	0.403949	2.17614	0.50167	2.71447	0.995194	5.3873	0.73514	3.97399
0.502385	2.71233	0.406029	2.17642	0.503297	2.70962	0.996309	5.36628	0.736316	3.9604
0.504014	2.70751	0.408109	2.1767	0.504928	2.70483	0.997424	5.34545	0.737495	3.94696
0.505646	2.70275	0.41019	2.17697	0.506562	2.70011	0.998536	5.32482	0.738677	3.93367
0.507281	2.69805	0.41227	2.17725	0.508199	2.69545	0.999646	5.30439	0.739862	3.92053
0.50892	2.69342	0.41435	2.17752	0.509839	2.69085	1.00075	5.28415	0.741049	3.90753
0.510562	2.68885	0.41643	2.17779	0.511483	2.68632			0.74224	3.89468
0.512207	2.68434	0.41851	2.17805	0.513129	2.68184			0.743434	3.88196
0.513854	2.67989	0.42059	2.17832	0.514779	2.67743			0.744631	3.86939
0.515505	2.6755	0.42267	2.17858	0.516432	2.67307			0.745831	3.85695
0.51716	2.67117	0.42475	2.17883	0.518087	2.66877			0.747034	3.84465
0.518817	2.6669	0.42683	2.17909	0.519746	2.66453			0.74824	3.83248
0.520477	2.66268	0.42891	2.17934	0.521408	2.66034			0.749449	3.82044
0.52214	2.65851	0.43099	2.17959	0.523073	2.6562			0.750661	3.80853
0.523806	2.6544	0.43307	2.17984	0.52474	2.65213			0.751876	3.79674
0.525475	2.65035	0.43515	2.18009	0.526411	2.6481			0.753094	3.78509
0.527146	2.64634	0.43723	2.18033	0.528084	2.64412			0.754315	3.77355
0.528821	2.64239	0.43931	2.18057	0.52976	2.6402			0.755539	3.76214
0.530498	2.63849	0.44139	2.18081	0.531439	2.63633			0.756767	3.75085
0.532179	2.63464	0.44347	2.18105	0.533121	2.6325			0.757997	3.73968
0.533862	2.63084	0.44555	2.18128	0.534806	2.62873			0.75923	3.72863
0.535548	2.62708	0.44763	2.18151	0.536493	2.625			0.760466	3.71769
0.537236	2.62337	0.44971	2.18174	0.538183	2.62132			0.761706	3.70686
0.538927	2.61971	0.45179	2.18197	0.539876	2.61768			0.762948	3.69615
0.540621	2.6161	0.45387	2.1822	0.541571	2.61409			0.764194	3.68555
0.542318	2.61253	0.45595	2.18242	0.543269	2.61055			0.765442	3.67506
0.544017	2.60901	0.45803	2.18264	0.54497	2.60705			0.766694	3.66467
0.545718	2.60552	0.460109	2.18286	0.546673	2.60359			0.767948	3.6544
0.547423	2.60209	0.462189	2.18308	0.548379	2.60018			0.769206	3.64422
0.54913	2.59869	0.464269	2.1833	0.550087	2.59681			0.770466	3.63415
0.550839	2.59534	0.466349	2.18351	0.551798	2.59348			0.77173	3.62419
0.552551	2.59203	0.468429	2.18372	0.553511	2.59019			0.772997	3.61432
0.554265	2.58875	0.470509	2.18393	0.555227	2.58694			0.774266	3.60455
0.555982	2.58552	0.472589	2.18414	0.556945	2.58373			0.775539	3.59489
0.557701	2.58233	0.474668	2.18435	0.558666	2.58056			0.776815	3.58532
0.559423	2.57917	0.476748	2.18455	0.560389	2.57742			0.778093	3.57584
0.561147	2.57606	0.478828	2.18476	0.562114	2.57433			0.779375	3.56646
