Sym0		Asym0		Sym1		Sym2		Asym1	
473  Points		491  Points		473  Points		208  Points		390  Points	
Freq (MHz)	Vph (m/ms)	Freq (MHz)	Vph (m/ms)	Freq (MHz)	Vph (m/ms)	Freq (MHz)	Vph (m/ms)	Freq (MHz)	Vph (m/ms)
0.000222218	9.52782	0.00027093	0.193099	0.00529331	9.5287	0.279521	853.95	0.1399	211.155
0.00909984	9.52845	0.000744146	0.318725	0.0141699	9.52788	0.279694	222.151	0.140598	88.191
0.0179753	9.5273	0.00143939	0.440659	0.0230433	9.52634	0.280068	127.843	0.141861	56.1615
0.0268465	9.52541	0.00234136	0.557712	0.031911	9.52397	0.280642	89.8798	0.143671	41.5519
0.0357112	9.52272	0.00343185	0.668996	0.040771	9.52083	0.281411	69.4138	0.146006	33.2638
0.0445671	9.51923	0.00469085	0.773871	0.0496209	9.51688	0.28237	56.6349	0.148836	27.9712
0.0534121	9.51494	0.00609798	0.871983	0.0584583	9.51209	0.283514	47.9111	0.152129	24.3301
0.0622433	9.50978	0.00763324	0.963193	0.0672806	9.50643	0.284834	41.5865	0.155853	21.6932
0.0710582	9.50372	0.00927775	1.04755	0.0760849	9.49984	0.286322	36.7981	0.159973	19.7105
0.0798539	9.49672	0.0110144	1.12526	0.0848682	9.49227	0.287967	33.0519	0.164456	18.1764
0.0886272	9.48871	0.0128278	1.19662	0.0936271	9.48367	0.289761	30.0448	0.169271	16.9619
0.0973746	9.47964	0.0147046	1.26201	0.102358	9.47395	0.29169	27.5804	0.174386	15.9823
0.106092	9.46942	0.0166333	1.32184	0.111057	9.46303	0.293742	25.5258	0.179775	15.18
0.114776	9.45795	0.018604	1.37653	0.119719	9.45081	0.295907	23.7879	0.18541	14.514
0.12342	9.44514	0.0206086	1.42652	0.128338	9.43717	0.29817	22.2996	0.191268	13.9548
0.13202	9.43086	0.0223778	1.46656	0.13691	9.42199	0.30052	21.0113	0.197327	13.4805
0.14057	9.41497	0.0238993	1.49831	0.145428	9.4051	0.302946	19.8856	0.203568	13.0746
0.149061	9.39729	0.0251652	1.52303	0.153883	9.38633	0.305438	18.8937	0.209971	12.7245
0.157487	9.37765	0.0261705	1.54164	0.162266	9.36547	0.307988	18.0133	0.216521	12.4201
0.165837	9.35584	0.0269118	1.55484	0.170569	9.34229	0.310591	17.2268	0.223203	12.1539
0.174101	9.33158	0.027387	1.56306	0.178779	9.31652	0.313245	16.5203	0.230002	11.9194
0.182267	9.3046	0.0280713	1.57461	0.186882	9.28785	0.315952	15.8826	0.236907	11.7118
0.19032	9.27458	0.0288165	1.58679	0.194863	9.25593	0.318718	15.3048	0.243907	11.5269
0.198244	9.24115	0.0298319	1.60276	0.202705	9.22037	0.321551	14.7797	0.25099	11.3614
0.20602	9.2039	0.0311191	1.62204	0.210388	9.18074	0.324469	14.3013	0.258148	11.2125
0.213627	9.16238	0.0326793	1.64405	0.217888	9.13655	0.327489	13.8651	0.265371	11.0779
0.221041	9.11609	0.0345136	1.6682	0.22518	9.08732	0.330635	13.4671	0.272651	10.9557
0.228237	9.06454	0.0366226	1.69386	0.232238	9.03253	0.333936	13.1042	0.279981	10.8443
0.235185	9.00721	0.0387348	1.71753	0.239032	8.97168	0.337422	12.774	0.287354	10.7422
0.241857	8.94361	0.0408489	1.73942	0.245534	8.90431	0.341124	12.4741	0.294762	10.6483
0.248224	8.87335	0.0429643	1.75968	0.251714	8.8301	0.345075	12.2029	0.3022	10.5615
0.254259	8.79611	0.0450803	1.77848	0.257548	8.74882	0.349305	11.9584	0.309661	10.481
0.259939	8.7118	0.0471963	1.79595	0.263017	8.66048	0.353838	11.7392	0.31714	10.406
0.265246	8.62048	0.049312	1.81221	0.268106	8.5653	0.358694	11.5435	0.324631	10.3358
0.270171	8.52249	0.0514271	1.82737	0.272813	8.46374	0.363882	11.3696	0.332127	10.2698
0.274715	8.4184	0.0535414	1.84153	0.277141	8.35648	0.369404	11.2156	0.339625	10.2076
0.278885	8.30895	0.0556547	1.85478	0.281105	8.24438	0.375251	11.0797	0.347117	10.1486
0.282698	8.19507	0.0577671	1.8672	0.284724	8.12842	0.381408	10.96	0.3546	10.0924
0.286176	8.07775	0.0598783	1.87886	0.288024	8.00958	0.387852	10.8546	0.362067	10.0387
0.289348	7.95799	0.0619883	1.88982	0.290661	7.90446	0.394559	10.7616	0.369513	9.98719
0.292241	7.83676	0.0640971	1.90014	0.29275	7.81418	0.4015	10.6796	0.376932	9.93748
0.294886	7.71492	0.0662048	1.90987	0.294375	7.73932	0.408648	10.6068	0.384319	9.88933
0.29731	7.59325	0.0683114	1.91906	0.295599	7.68014	0.415977	10.5421	0.391669	9.84247
0.29954	7.4724	0.0704168	1.92775	0.296467	7.63667	0.423461	10.4843	0.398974	9.79667
0.3016	7.35289	0.0725211	1.93598	0.297009	7.60889	0.431079	10.4322	0.406228	9.75171
0.303512	7.23517	0.0746244	1.94378	0.29777	7.56902	0.438809	10.3851	0.413426	9.70739
0.305296	7.11955	0.0767267	1.95119	0.298574	7.52581	0.446633	10.3422	0.420561	9.66351
0.306967	7.0063	0.078828	1.95823	0.299631	7.46727	0.454535	10.3029	0.427625	9.61989
0.308541	6.89559	0.0809284	1.96493	0.300911	7.39371	0.4625	10.2667	0.434613	9.57636
0.31003	6.78754	0.0830279	1.97131	0.302381	7.30559	0.470516	10.233	0.441515	9.53276
0.311446	6.68224	0.0851265	1.97739	0.304008	7.20359	0.478571	10.2015	0.448326	9.48893
0.312798	6.57972	0.0872244	1.98321	0.305759	7.0886	0.486656	10.1718	0.455038	9.44473
0.314095	6.47999	0.0893215	1.98876	0.307403	6.97602	0.49476	10.1436	0.461642	9.40003
0.315343	6.38306	0.0914179	1.99407	0.308953	6.86602	0.502876	10.1168	0.468132	9.3547
0.31655	6.28887	0.0935136	1.99915	0.310421	6.75871	0.510996	10.091	0.474499	9.30864
0.31772	6.19741	0.0956086	2.00402	0.311819	6.65416	0.519113	10.0661	0.480737	9.26172
0.318858	6.1086	0.097703	2.0087	0.313155	6.5524	0.527221	10.0419	0.486838	9.21388
0.319969	6.02239	0.0997969	2.01318	0.314438	6.45343	0.535313	10.0182	0.492796	9.16503
0.321057	5.93871	0.10189	2.01749	0.315674	6.35724	0.543384	9.99499	0.498605	9.11512
0.322123	5.8575	0.103983	2.02163	0.31687	6.2638	0.551428	9.97205	0.504258	9.06409
0.323173	5.77868	0.106075	2.02562	0.318031	6.17306	0.55944	9.94931	0.509752	9.01191
0.324207	5.70218	0.108167	2.02946	0.319162	6.08496	0.567416	9.92667	0.515083	8.95859
0.325229	5.62793	0.110258	2.03315	0.320266	5.99945	0.57535	9.90404	0.520247	8.90412
0.32624	5.55585	0.112349	2.03672	0.321348	5.91645	0.583238	9.88134	0.525242	8.84852
0.327242	5.48587	0.11444	2.04016	0.32241	5.83589	0.591075	9.85851	0.530069	8.79184
0.328237	5.41793	0.11653	2.04348	0.323455	5.75771	0.598857	9.83547	0.534726	8.73411
0.329226	5.35194	0.11862	2.04669	0.324486	5.68182	0.60658	9.81217	0.539216	8.67542
0.33021	5.28785	0.120709	2.04979	0.325504	5.60817	0.614241	9.78856	0.543539	8.61583
0.331191	5.22559	0.122798	2.05278	0.326513	5.53667	0.621834	9.76458	0.5477	8.55543
0.332169	5.1651	0.124887	2.05568	0.327513	5.46725	0.629356	9.7402	0.551701	8.4943
0.333146	5.10631	0.126975	2.05849	0.328506	5.39984	0.636804	9.71538	0.555547	8.43255
0.334122	5.04916	0.129064	2.06121	0.329493	5.33438	0.644173	9.69007	0.559242	8.37028
0.335098	4.99361	0.131152	2.06385	0.330476	5.27079	0.651461	9.66425	0.562793	8.30757
0.336075	4.93958	0.133239	2.0664	0.331456	5.20901	0.658664	9.6379	0.565773	8.25266
0.337053	4.88704	0.135327	2.06888	0.332434	5.14899	0.665778	9.61097	0.568233	8.2057
0.338033	4.83592	0.137414	2.07129	0.33341	5.09065	0.672801	9.58346	0.570213	8.16679
0.339016	4.78618	0.139501	2.07362	0.334386	5.03394	0.67973	9.55533	0.571744	8.13599
0.340001	4.73777	0.141587	2.07589	0.335363	4.97881	0.686561	9.52659	0.572852	8.11333
0.34099	4.69065	0.143674	2.0781	0.33634	4.92519	0.693291	9.4972	0.573552	8.09883
0.341982	4.64478	0.14576	2.08024	0.337318	4.87303	0.699919	9.46716	0.574549	8.07798
0.342978	4.6001	0.147846	2.08232	0.338299	4.8223	0.706441	9.43646	0.575617	8.05531
0.343979	4.55658	0.149932	2.08435	0.339282	4.77292	0.712855	9.40509	0.577046	8.0245
0.344984	4.51418	0.152018	2.08632	0.340269	4.72487	0.71916	9.37305	0.578816	7.98555
0.345994	4.47287	0.154104	2.08825	0.341258	4.67809	0.725352	9.34034	0.580901	7.93851
0.347009	4.4326	0.156189	2.09012	0.342252	4.63254	0.731432	9.30696	0.583273	7.88345
0.34803	4.39335	0.158274	2.09194	0.343249	4.58818	0.737396	9.27292	0.585901	7.82049
0.349056	4.35508	0.16036	2.09372	0.344251	4.54497	0.743243	9.23822	0.588434	7.75783
0.350087	4.31776	0.162445	2.09545	0.345258	4.50287	0.748974	9.20287	0.590877	7.69551
0.351124	4.28135	0.164529	2.09714	0.346269	4.46185	0.754586	9.16689	0.593236	7.63361
0.352167	4.24584	0.166614	2.09879	0.347286	4.42186	0.760079	9.13028	0.595515	7.57215
0.353217	4.21118	0.168699	2.10039	0.348307	4.38288	0.765454	9.09308	0.597719	7.51119
0.354272	4.17736	0.170783	2.10196	0.349335	4.34486	0.77071	9.05529	0.599852	7.45076
0.355334	4.14435	0.172867	2.1035	0.350368	4.30779	0.775847	9.01694	0.601919	7.3909
0.356401	4.11212	0.174952	2.10499	0.351407	4.27163	0.780866	8.97806	0.603922	7.33163
0.357476	4.08065	0.177036	2.10645	0.352451	4.23636	0.785769	8.93867	0.605867	7.27297
0.358556	4.04991	0.17912	2.10788	0.353502	4.20193	0.790555	8.8988	0.607756	7.21495
0.359644	4.01989	0.181204	2.10928	0.354559	4.16833	0.795226	8.85848	0.609592	7.15759
0.360738	3.99056	0.183287	2.11065	0.355623	4.13553	0.799784	8.81773	0.61138	7.10089
0.361838	3.9619	0.185371	2.11198	0.356692	4.10351	0.80423	8.7766	0.613121	7.04488
0.362802	3.93746	0.187455	2.11329	0.357768	4.07224	0.808566	8.7351	0.614819	6.98956
0.363628	3.917	0.189538	2.11457	0.358851	4.0417	0.812794	8.69328	0.616475	6.93494
0.364314	3.90034	0.191622	2.11582	0.35994	4.01187	0.816393	8.6566	0.618093	6.88103
0.364858	3.88733	0.193705	2.11704	0.361035	3.98272	0.819398	8.62516	0.619676	6.82782
0.36526	3.87786	0.195788	2.11824	0.362138	3.95424	0.82184	8.59907	0.621224	6.77532
0.365517	3.87183	0.197871	2.11941	0.363246	3.9264	0.823745	8.57837	0.62274	6.72354
0.365887	3.86323	0.199955	2.12056	0.364362	3.89919	0.82513	8.56313	0.624225	6.67246
0.36629	3.85395	0.202038	2.12169	0.365484	3.87259	0.82601	8.55336	0.625683	6.62209
0.36684	3.84144	0.20412	2.1228	0.366613	3.84658	0.827266	8.53929	0.627114	6.57242
0.367538	3.82582	0.206203	2.12388	0.367749	3.82114	0.828619	8.52398	0.62852	6.52346
0.368385	3.80721	0.208286	2.12494	0.368892	3.79626	0.83044	8.50313	0.629902	6.47519
0.369384	3.78576	0.210369	2.12598	0.370041	3.77192	0.83271	8.4767	0.631262	6.42761
0.370536	3.76165	0.212452	2.127	0.371197	3.74811	0.835409	8.44467	0.632602	6.38072
0.371694	3.73806	0.214534	2.128	0.372359	3.72481	0.83851	8.40703	0.633921	6.3345
0.37286	3.71497	0.216617	2.12898	0.373529	3.702	0.841985	8.36374	0.635223	6.28895
0.374032	3.69237	0.218699	2.12995	0.374705	3.67968	0.845373	8.32039	0.636507	6.24407
0.375211	3.67026	0.220782	2.13089	0.375888	3.65783	0.848677	8.27701	0.637775	6.19984
0.376397	3.6486	0.222864	2.13182	0.377077	3.63644	0.851899	8.23362	0.639027	6.15626
0.377589	3.6274	0.224946	2.13273	0.378273	3.61549	0.855042	8.19024	0.640266	6.11332
0.378788	3.60664	0.227029	2.13363	0.379476	3.59497	0.858108	8.1469	0.64149	6.07101
0.379994	3.5863	0.229111	2.1345	0.380686	3.57488	0.861099	8.10362	0.642703	6.02932
0.381206	3.56639	0.231193	2.13537	0.381902	3.55519	0.864019	8.06043	0.643903	5.98824
0.382425	3.54687	0.233275	2.13622	0.383124	3.5359	0.86687	8.01733	0.645093	5.94777
0.383651	3.52775	0.235357	2.13705	0.384354	3.51701	0.869653	7.97436	0.646272	5.90789
0.384883	3.50902	0.237439	2.13787	0.385589	3.49849	0.872371	7.93152	0.647441	5.86859
0.386121	3.49066	0.239521	2.13867	0.386831	3.48034	0.875027	7.88884	0.648601	5.82987
0.387366	3.47266	0.241603	2.13946	0.38808	3.46254	0.877622	7.84633	0.649753	5.79172
0.388617	3.45502	0.243685	2.14024	0.389335	3.4451	0.880159	7.80401	0.650897	5.75413
0.389875	3.43773	0.245767	2.14101	0.390596	3.428	0.882639	7.76188	0.652033	5.71709
0.391139	3.42077	0.247849	2.14176	0.391864	3.41124	0.885066	7.71997	0.653163	5.68059
0.392409	3.40415	0.24993	2.1425	0.393138	3.39479	0.88744	7.67828	0.654286	5.64462
0.393686	3.38784	0.252012	2.14323	0.394418	3.37866	0.889763	7.63682	0.655404	5.60918
0.394969	3.37184	0.254094	2.14394	0.395705	3.36285	0.892038	7.5956	0.656515	5.57424
0.396258	3.35615	0.256175	2.14465	0.396997	3.34733	0.894267	7.55464	0.657622	5.53982
0.397553	3.34076	0.258257	2.14534	0.398296	3.3321	0.89645	7.51395	0.658724	5.50589
0.398855	3.32566	0.260339	2.14602	0.399601	3.31716	0.898589	7.47352	0.659822	5.47245
0.400162	3.31084	0.26242	2.14669	0.400912	3.3025	0.900687	7.43337	0.660916	5.43949
0.401476	3.2963	0.264502	2.14735	0.402229	3.28811	0.902745	7.3935	0.662006	5.407
0.402795	3.28203	0.266583	2.148	0.403552	3.27399	0.904764	7.35392	0.663093	5.37497
0.404121	3.26802	0.268664	2.14865	0.40488	3.26013	0.906745	7.31463	0.664177	5.34341
0.405452	3.25427	0.270746	2.14928	0.406215	3.24652	0.908691	7.27564	0.665258	5.31228
0.406789	3.24076	0.272827	2.1499	0.407556	3.23316	0.910601	7.23695	0.666337	5.2816
0.408132	3.22751	0.274908	2.15051	0.408902	3.22004	0.912479	7.19857	0.667414	5.25136
0.409481	3.21449	0.27699	2.15111	0.410254	3.20716	0.914324	7.1605	0.668488	5.22154
0.410836	3.20171	0.279071	2.15171	0.411612	3.19451	0.916139	7.12274	0.669561	5.19213
0.412196	3.18915	0.281152	2.15229	0.412975	3.18208	0.917924	7.08529	0.670633	5.16314
0.413562	3.17682	0.283234	2.15287	0.414344	3.16987	0.91968	7.04816	0.671703	5.13455
0.414933	3.1647	0.285315	2.15344	0.415719	3.15788	0.921409	7.01135	0.672773	5.10635
0.41631	3.1528	0.287396	2.154	0.417099	3.1461	0.923112	6.97485	0.673841	5.07855
0.417693	3.14111	0.289477	2.15455	0.418485	3.13452	0.924788	6.93868	0.674909	5.05113
0.419081	3.12962	0.291558	2.1551	0.419876	3.12315	0.926441	6.90282	0.675976	5.02409
0.420474	3.11833	0.293639	2.15564	0.421272	3.11197	0.92807	6.86728	0.677043	4.99741
0.421873	3.10723	0.29572	2.15616	0.422674	3.10098	0.929676	6.83207	0.67811	4.9711
0.423277	3.09633	0.297801	2.15669	0.424081	3.09018	0.93126	6.79717	0.679177	4.94515
0.424686	3.08561	0.299882	2.1572	0.425494	3.07956	0.932823	6.76259	0.680244	4.91954
0.426101	3.07507	0.301963	2.15771	0.426911	3.06913	0.934366	6.72833	0.681312	4.89428
0.427521	3.06471	0.304044	2.15821	0.428334	3.05887	0.93589	6.69439	0.682379	4.86936
0.428946	3.05452	0.306125	2.15871	0.429762	3.04878	0.937395	6.66077	0.683448	4.84478
0.430376	3.04451	0.308206	2.15919	0.431195	3.03886	0.938882	6.62746	0.684517	4.82052
0.431811	3.03466	0.310287	2.15968	0.432633	3.0291	0.940352	6.59446	0.685587	4.79658
0.433251	3.02497	0.312368	2.16015	0.434076	3.01951	0.941805	6.56178	0.686658	4.77296
0.434696	3.01545	0.314449	2.16062	0.435524	3.01007	0.943242	6.52941	0.68773	4.74965
0.436146	3.00608	0.316529	2.16108	0.436977	3.00079	0.944663	6.49734	0.688803	4.72665
0.437601	2.99686	0.31861	2.16154	0.438434	2.99166	0.94607	6.46559	0.689877	4.70395
0.439061	2.98779	0.320691	2.16199	0.439897	2.98268	0.947463	6.43414	0.690953	4.68154
0.440526	2.97887	0.322772	2.16244	0.441364	2.97384	0.948842	6.40299	0.69203	4.65942
0.441995	2.9701	0.324853	2.16288	0.442836	2.96515	0.950207	6.37214	0.693108	4.63759
0.443469	2.96146	0.326933	2.16331	0.444313	2.95659	0.951561	6.34159	0.694188	4.61604
0.444948	2.95296	0.329014	2.16374	0.445794	2.94817	0.952902	6.31134	0.69527	4.59477
0.446431	2.9446	0.331095	2.16416	0.44728	2.93988	0.954231	6.28138	0.696353	4.57377
0.447919	2.93637	0.333175	2.16458	0.448771	2.93173	0.955549	6.25172	0.697439	4.55304
0.449411	2.92827	0.335256	2.16499	0.450266	2.9237	0.956856	6.22234	0.698526	4.53256
0.450908	2.92029	0.337337	2.1654	0.451765	2.91579	0.958153	6.19325	0.699615	4.51235
0.45241	2.91244	0.339417	2.1658	0.453269	2.90801	0.95944	6.16445	0.700706	4.49239
0.453916	2.90472	0.341498	2.1662	0.454778	2.90035	0.960717	6.13592	0.701799	4.47268
0.455426	2.89711	0.343578	2.16659	0.456291	2.89281	0.961986	6.10768	0.702894	4.45322
0.456941	2.88962	0.345659	2.16698	0.457808	2.88539	0.963245	6.07971	0.703992	4.434
0.45846	2.88224	0.34774	2.16737	0.459329	2.87808	0.964496	6.05202	0.705091	4.41502
0.459983	2.87498	0.34982	2.16774	0.460855	2.87088	0.965739	6.0246	0.706193	4.39627
0.46151	2.86782	0.351901	2.16812	0.462384	2.86378	0.966974	5.99744	0.707297	4.37775
0.463042	2.86078	0.353981	2.16849	0.463918	2.8568	0.968201	5.97055	0.708404	4.35946
0.464577	2.85384	0.356061	2.16886	0.465456	2.84992	0.969422	5.94393	0.709513	4.3414
0.466117	2.847	0.358142	2.16922	0.466999	2.84314	0.970635	5.91756	0.710624	4.32355
0.467661	2.84027	0.360222	2.16958	0.468545	2.83647	0.971842	5.89146	0.711738	4.30592
0.469209	2.83364	0.362303	2.16993	0.470095	2.82989	0.973043	5.86561	0.712854	4.2885
0.470761	2.8271	0.364383	2.17028	0.471649	2.82341	0.974237	5.84001	0.713973	4.27129
0.472317	2.82066	0.366464	2.17063	0.473208	2.81703	0.975426	5.81466	0.715095	4.25429
0.473877	2.81432	0.368544	2.17097	0.47477	2.81074	0.976609	5.78956	0.716219	4.23749
0.475441	2.80807	0.370624	2.1713	0.476336	2.80454	0.977787	5.7647	0.717346	4.22088
0.477008	2.80191	0.372705	2.17164	0.477905	2.79843	0.97896	5.74008	0.718475	4.20448
0.47858	2.79584	0.374785	2.17197	0.479479	2.79241	0.980128	5.71571	0.719607	4.18827
0.480155	2.78986	0.376866	2.1723	0.481056	2.78648	0.981291	5.69157	0.720742	4.17225
0.481734	2.78396	0.378946	2.17262	0.482637	2.78063	0.98245	5.66766	0.72188	4.15642
0.483316	2.77815	0.381026	2.17294	0.484222	2.77486	0.983605	5.64399	0.72302	4.14077
0.484903	2.77242	0.383106	2.17326	0.48581	2.76918	0.984756	5.62054	0.724163	4.12531
0.486493	2.76677	0.385187	2.17357	0.487402	2.76358	0.985903	5.59733	0.725309	4.11002
0.488086	2.7612	0.387267	2.17388	0.488998	2.75806	0.987046	5.57433	0.726458	4.09491
0.489683	2.75571	0.389347	2.17419	0.490597	2.75261	0.988186	5.55156	0.72761	4.07998
0.491284	2.7503	0.391428	2.17449	0.4922	2.74724	0.989322	5.529	0.728764	4.06521
0.492888	2.74496	0.393508	2.17479	0.493806	2.74195	0.990455	5.50666	0.729922	4.05062
0.494496	2.7397	0.395588	2.17509	0.495416	2.73673	0.991586	5.48454	0.731082	4.03619
0.496107	2.73451	0.397668	2.17538	0.497029	2.73158	0.992713	5.46262	0.732245	4.02192
0.497721	2.72939	0.399748	2.17567	0.498645	2.7265	0.993838	5.44092	0.733411	4.00782
0.499339	2.72435	0.401829	2.17596	0.500265	2.72149	0.994961	5.41942	0.73458	3.99387
0.50096	2.71937	0.403909	2.17624	0.501888	2.71656	0.996081	5.39813	0.735752	3.98008
0.502585	2.71446	0.405989	2.17652	0.503514	2.71168	0.997198	5.37703	0.736927	3.96644
0.504213	2.70962	0.408069	2.1768	0.505144	2.70688	0.998314	5.35614	0.738105	3.95296
0.505844	2.70484	0.410149	2.17708	0.506777	2.70214	0.999428	5.33545	0.739286	3.93963
0.507478	2.70012	0.412229	2.17735	0.508413	2.69746	1.00054	5.31495	0.74047	3.92644
0.509116	2.69548	0.414309	2.17762	0.510053	2.69285			0.741657	3.9134
0.510756	2.69089	0.41639	2.17789	0.511695	2.6883			0.742846	3.9005
0.5124	2.68636	0.41847	2.17816	0.513341	2.6838			0.744039	3.88775
0.514047	2.6819	0.42055	2.17842	0.514989	2.67937			0.745235	3.87513
0.515697	2.67749	0.42263	2.17868	0.516641	2.675			0.746434	3.86265
0.51735	2.67314	0.42471	2.17894	0.518296	2.67068			0.747636	3.85031
0.519006	2.66885	0.42679	2.17919	0.519954	2.66643			0.748841	3.8381
0.520665	2.66462	0.42887	2.17944	0.521614	2.66222			0.750049	3.82602
0.522327	2.66044	0.43095	2.17969	0.523278	2.65807			0.75126	3.81407
0.523992	2.65631	0.43303	2.17994	0.524945	2.65398			0.752474	3.80225
0.52566	2.65224	0.43511	2.18019	0.526614	2.64994			0.753691	3.79055
0.527331	2.64822	0.43719	2.18043	0.528287	2.64595			0.754911	3.77898
0.529005	2.64425	0.43927	2.18067	0.529962	2.64201			0.756134	3.76753
0.530681	2.64034	0.44135	2.18091	0.53164	2.63812			0.75736	3.7562
0.53236	2.63647	0.44343	2.18115	0.533321	2.63428			0.758589	3.74499
0.534042	2.63265	0.44551	2.18138	0.535004	2.63049			0.759821	3.7339
0.535727	2.62888	0.44759	2.18161	0.536691	2.62675			0.761057	3.72293
0.537415	2.62516	0.44967	2.18184	0.53838	2.62306			0.762295	3.71207
0.539105	2.62149	0.45175	2.18207	0.540071	2.61941			0.763536	3.70132
0.540798	2.61786	0.45383	2.1823	0.541766	2.61581			0.76478	3.69068
0.542493	2.61428	0.45591	2.18252	0.543463	2.61225			0.766028	3.68015
0.544191	2.61074	0.45799	2.18274	0.545163	2.60874			0.767278	3.66973
0.545892	2.60724	0.46007	2.18296	0.546865	2.60527			0.768531	3.65942
0.547596	2.60379	0.46215	2.18318	0.54857	2.60184			0.769788	3.64922
0.549302	2.60038	0.46423	2.18339	0.550277	2.59846			0.771047	3.63911
0.55101	2.59702	0.466309	2.18361	0.551987	2.59511			0.77231	3.62911
0.552721	2.59369	0.468389	2.18382	0.553699	2.59181			0.773575	3.61921
0.554434	2.59041	0.470469	2.18403	0.555414	2.58855			0.774844	3.60942
0.55615	2.58716	0.472549	2.18424	0.557132	2.58533			0.776115	3.59971
0.557869	2.58396	0.474629	2.18444	0.558851	2.58214			0.777389	3.59011
0.55959	2.58079	0.476709	2.18465	0.560574	2.579			0.778667	3.5806
0.561313	2.57766	0.478789	2.18485	0.562298	2.57589			0.779947	3.57119
