Sym0		Asym0		Sym1		Sym2		Asym1	
473  Points		492  Points		473  Points		209  Points		390  Points	
Freq (MHz)	Vph (m/ms)	Freq (MHz)	Vph (m/ms)	Freq (MHz)	Vph (m/ms)	Freq (MHz)	Vph (m/ms)	Freq (MHz)	Vph (m/ms)
0.00112729	9.50969	3.56233e-005	0.0700895	0.0060575	9.50938	0.279551	464.444	0.139985	167.677
0.00998675	9.50905	0.000284689	0.197707	0.0149159	9.50844	0.279781	182.434	0.140785	79.6951
0.0188439	9.50784	0.000766068	0.323011	0.0237708	9.50684	0.280211	113.662	0.142146	52.6808
0.0276965	9.50586	0.00146846	0.444538	0.0326201	9.50445	0.280838	82.6727	0.144048	39.6833
0.0365426	9.50314	0.00237663	0.561183	0.0414615	9.50128	0.281658	65.0677	0.146467	32.1085
0.0453799	9.49963	0.00347227	0.672043	0.0502928	9.49732	0.282664	53.7346	0.149375	27.1921
0.0542059	9.4953	0.00473565	0.776537	0.0591116	9.49252	0.283851	45.841	0.152739	23.7725
0.0630183	9.49012	0.0061462	0.874266	0.0679151	9.48685	0.28521	40.0364	0.156525	21.2765
0.0718142	9.48405	0.00768415	0.965125	0.0767007	9.48027	0.286733	35.5948	0.160701	19.3886
0.0805909	9.47705	0.00933074	1.04916	0.0854653	9.47272	0.288408	32.0912	0.165232	17.9209
0.0893451	9.46905	0.0110689	1.12659	0.0942055	9.46413	0.290226	29.2601	0.170089	16.7546
0.0980734	9.45998	0.0128834	1.19769	0.102918	9.45445	0.292175	26.9272	0.175241	15.811
0.106772	9.44977	0.0147611	1.26286	0.111598	9.44356	0.294242	24.9733	0.18066	15.036
0.115436	9.43833	0.0166903	1.32249	0.120241	9.43139	0.296414	23.3141	0.186321	14.3912
0.124062	9.42554	0.0186613	1.37702	0.128842	9.4178	0.29868	21.8883	0.192201	13.8487
0.132642	9.41129	0.0206662	1.42686	0.137396	9.40267	0.301027	20.6504	0.198278	13.3878
0.141172	9.39543	0.0224354	1.46679	0.145895	9.38584	0.303445	19.5657	0.204532	12.9928
0.149645	9.37779	0.0239569	1.49846	0.154331	9.36713	0.305925	18.6078	0.210946	12.6514
0.158051	9.35818	0.0252229	1.52312	0.162697	9.34634	0.308459	17.7557	0.217504	12.3544
0.166382	9.3364	0.0262281	1.54169	0.170981	9.32323	0.311043	16.9931	0.22419	12.0942
0.174626	9.31217	0.0269694	1.55485	0.179172	9.29753	0.313677	16.307	0.230993	11.8648
0.182771	9.28522	0.0274447	1.56306	0.187256	9.26892	0.316364	15.6868	0.237899	11.6615
0.190804	9.25521	0.0281289	1.57458	0.195219	9.23706	0.31911	15.1243	0.244897	11.4802
0.198707	9.22178	0.0288741	1.58674	0.203041	9.20155	0.321927	14.6126	0.251978	11.3178
0.206461	9.18451	0.0298895	1.60268	0.210703	9.16194	0.324833	14.1462	0.259132	11.1716
0.214045	9.14295	0.0311766	1.62192	0.218183	9.11778	0.327847	13.7207	0.26635	11.0394
0.221435	9.09659	0.0327368	1.6439	0.225453	9.06853	0.330996	13.3326	0.273623	10.9192
0.228605	9.04494	0.034571	1.668	0.232488	9.0137	0.334307	12.9789	0.280946	10.8095
0.235525	8.98746	0.0366799	1.69362	0.239258	8.95277	0.337813	12.6572	0.28831	10.709
0.242168	8.92368	0.038792	1.71726	0.245733	8.8853	0.341545	12.3654	0.295709	10.6164
0.248503	8.85318	0.0409061	1.73912	0.251886	8.81093	0.345537	12.1017	0.303136	10.5308
0.254504	8.77568	0.0430214	1.75937	0.25769	8.72947	0.349816	11.8644	0.310586	10.4513
0.260148	8.69106	0.0451373	1.77814	0.263126	8.64091	0.354408	11.652	0.318053	10.3772
0.265416	8.59942	0.0472533	1.7956	0.268183	8.5455	0.359328	11.4626	0.325531	10.3079
0.270302	8.5011	0.049369	1.81185	0.272855	8.4437	0.364584	11.2946	0.333015	10.2427
0.274805	8.39668	0.0514841	1.827	0.277149	8.33622	0.370175	11.1461	0.340498	10.1811
0.278935	8.28695	0.0535983	1.84115	0.281078	8.22393	0.376091	11.0152	0.347977	10.1227
0.282709	8.17283	0.0557117	1.8544	0.284663	8.1078	0.382312	10.9	0.355444	10.0671
0.286149	8.05533	0.057824	1.86681	0.28793	7.98885	0.388817	10.7986	0.362896	10.0139
0.289284	7.93545	0.0599351	1.87847	0.29054	7.88368	0.395578	10.7092	0.370326	9.96279
0.292143	7.81417	0.0620452	1.88943	0.292606	7.79339	0.402568	10.6303	0.37773	9.91347
0.294756	7.69235	0.0641541	1.89975	0.294214	7.71854	0.409758	10.5604	0.3851	9.86567
0.29715	7.57076	0.0662618	1.90948	0.295425	7.65938	0.417123	10.4981	0.392432	9.81913
0.299353	7.45004	0.0683683	1.91867	0.296283	7.61594	0.424638	10.4424	0.399719	9.77362
0.301389	7.33072	0.0704737	1.92736	0.296819	7.58817	0.43228	10.3922	0.406955	9.72892
0.303279	7.21322	0.0725781	1.93559	0.297572	7.54834	0.44003	10.3468	0.414134	9.68483
0.305041	7.09786	0.0746814	1.9434	0.298367	7.50517	0.447871	10.3054	0.421249	9.64115
0.306694	6.98489	0.0767837	1.95081	0.299412	7.44669	0.455785	10.2674	0.428293	9.59771
0.308251	6.87448	0.078885	1.95785	0.300678	7.37323	0.46376	10.2323	0.435259	9.55434
0.309725	6.76676	0.0809854	1.96455	0.302133	7.28524	0.471782	10.1996	0.442141	9.51087
0.311127	6.66179	0.0830849	1.97094	0.303742	7.18342	0.479842	10.169	0.448929	9.46716
0.312467	6.55961	0.0851835	1.97703	0.305475	7.06865	0.487928	10.1402	0.455617	9.42306
0.313752	6.46024	0.0872815	1.98284	0.307102	6.95633	0.496033	10.1128	0.462197	9.37843
0.31499	6.36365	0.0893785	1.98839	0.308637	6.8466	0.504147	10.0866	0.468662	9.33316
0.316187	6.26982	0.0914749	1.99371	0.310091	6.73957	0.512264	10.0615	0.475003	9.28713
0.317349	6.1787	0.0935706	1.9988	0.311477	6.63532	0.520377	10.0371	0.481214	9.24025
0.31848	6.09024	0.0956657	2.00367	0.312802	6.53386	0.528479	10.0135	0.487288	9.19241
0.319584	6.00437	0.0977601	2.00835	0.314074	6.4352	0.536565	9.99032	0.493217	9.14356
0.320665	5.92104	0.0998539	2.01284	0.315301	6.33932	0.544629	9.96754	0.498996	9.09362
0.321726	5.84016	0.101947	2.01715	0.316489	6.24619	0.552664	9.94503	0.504619	9.04256
0.32277	5.76167	0.10404	2.02129	0.317642	6.15576	0.560668	9.92269	0.510082	8.99035
0.3238	5.6855	0.106132	2.02528	0.318765	6.06797	0.568633	9.90042	0.51538	8.93698
0.324818	5.61156	0.108224	2.02912	0.319863	5.98276	0.576557	9.87813	0.520511	8.88246
0.325825	5.53979	0.110315	2.03282	0.320939	5.90006	0.584433	9.85575	0.525474	8.8268
0.326823	5.47012	0.112406	2.03639	0.321995	5.81981	0.592258	9.83321	0.530267	8.77006
0.327815	5.40247	0.114497	2.03984	0.323036	5.74192	0.600028	9.81045	0.534891	8.71228
0.328801	5.33678	0.116587	2.04316	0.324062	5.66632	0.607737	9.78741	0.539346	8.65353
0.329783	5.27297	0.118677	2.04637	0.325077	5.59295	0.615383	9.76403	0.543636	8.59389
0.330761	5.21099	0.120766	2.04947	0.326082	5.52173	0.622961	9.74028	0.547762	8.53344
0.331738	5.15077	0.122855	2.05247	0.327078	5.45258	0.630467	9.7161	0.55173	8.47228
0.332713	5.09224	0.124944	2.05538	0.328068	5.38544	0.637897	9.69146	0.555543	8.4105
0.333687	5.03535	0.127032	2.05819	0.329053	5.32024	0.645249	9.66632	0.559206	8.3482
0.334662	4.98005	0.129121	2.06091	0.330034	5.2569	0.652518	9.64066	0.562724	8.28549
0.335638	4.92627	0.131209	2.06355	0.331012	5.19538	0.6597	9.61443	0.565677	8.23057
0.336615	4.87396	0.133296	2.06611	0.331988	5.1356	0.666794	9.58763	0.568114	8.18361
0.337594	4.82308	0.135384	2.06859	0.332963	5.0775	0.673795	9.56022	0.570075	8.14472
0.338576	4.77357	0.137471	2.071	0.333937	5.02102	0.6807	9.53219	0.571592	8.11393
0.339561	4.72538	0.139558	2.07333	0.334912	4.96611	0.687507	9.50352	0.572689	8.09128
0.34055	4.67847	0.141644	2.07561	0.335888	4.91271	0.694213	9.47419	0.573383	8.07678
0.341542	4.63281	0.143731	2.07781	0.336866	4.86078	0.700815	9.4442	0.57437	8.05594
0.342538	4.58833	0.145817	2.07996	0.337846	4.81025	0.70731	9.41355	0.575428	8.03329
0.343539	4.54502	0.147903	2.08204	0.338829	4.76108	0.713697	9.38221	0.576843	8.0025
0.344544	4.50281	0.149989	2.08407	0.339815	4.71323	0.719973	9.35019	0.578595	7.96358
0.345555	4.46169	0.152075	2.08605	0.340804	4.66665	0.726136	9.31749	0.58066	7.91658
0.34657	4.42161	0.154161	2.08797	0.341797	4.62129	0.732185	9.28412	0.583009	7.86158
0.347591	4.38254	0.156246	2.08985	0.342794	4.57712	0.738118	9.25007	0.585611	7.79869
0.348617	4.34445	0.158331	2.09167	0.343796	4.53409	0.743934	9.21535	0.588119	7.7361
0.349649	4.3073	0.160416	2.09345	0.344803	4.49217	0.749632	9.17999	0.590539	7.67388
0.350687	4.27106	0.162501	2.09519	0.345814	4.45131	0.755211	9.14398	0.592874	7.61208
0.351731	4.23571	0.164586	2.09688	0.346831	4.4115	0.760671	9.10735	0.595131	7.55073
0.352781	4.20122	0.166671	2.09853	0.347853	4.37268	0.766012	9.07012	0.597314	7.48988
0.353837	4.16756	0.168756	2.10014	0.348881	4.33483	0.771233	9.0323	0.599427	7.42958
0.3549	4.1347	0.17084	2.10171	0.349915	4.29792	0.776336	8.99392	0.601473	7.36984
0.355968	4.10262	0.172924	2.10324	0.350954	4.26191	0.78132	8.95501	0.603458	7.3107
0.357044	4.07129	0.175008	2.10474	0.352	4.22678	0.786187	8.91558	0.605385	7.25218
0.358125	4.0407	0.177093	2.10621	0.353051	4.19251	0.790938	8.87568	0.607256	7.19431
0.359214	4.01082	0.179177	2.10764	0.354109	4.15905	0.795574	8.83533	0.609076	7.13709
0.360309	3.98162	0.18126	2.10904	0.355173	4.1264	0.800096	8.79455	0.610848	7.08055
0.36141	3.95309	0.183344	2.1104	0.356243	4.09451	0.804507	8.75339	0.612574	7.02469
0.362376	3.92877	0.185428	2.11174	0.35732	4.06338	0.808808	8.71188	0.614257	6.96953
0.363203	3.9084	0.187511	2.11305	0.358404	4.03297	0.813001	8.67004	0.6159	6.91507
0.363889	3.89182	0.189595	2.11433	0.359494	4.00326	0.81657	8.63334	0.617505	6.86131
0.364434	3.87888	0.191678	2.11558	0.360591	3.97424	0.819549	8.60189	0.619074	6.80827
0.364836	3.86945	0.193762	2.11681	0.361694	3.94588	0.82197	8.57579	0.62061	6.75593
0.365093	3.86345	0.195845	2.11801	0.362804	3.91817	0.823858	8.55509	0.622114	6.70431
0.365464	3.85489	0.197928	2.11918	0.363921	3.89108	0.825231	8.53984	0.623589	6.6534
0.365868	3.84565	0.200011	2.12034	0.365044	3.86459	0.826103	8.53007	0.625036	6.6032
0.366418	3.8332	0.202094	2.12146	0.366174	3.83869	0.827348	8.51601	0.626457	6.5537
0.367117	3.81765	0.204177	2.12257	0.367311	3.81337	0.828689	8.5007	0.627853	6.5049
0.367965	3.79913	0.20626	2.12365	0.368455	3.78859	0.830494	8.47984	0.629226	6.4568
0.368965	3.77778	0.208343	2.12472	0.369606	3.76436	0.832744	8.45342	0.630577	6.40939
0.370118	3.75378	0.210425	2.12576	0.370763	3.74065	0.835418	8.4214	0.631908	6.36266
0.371278	3.7303	0.212508	2.12678	0.371927	3.71745	0.838491	8.38376	0.63322	6.31661
0.372445	3.70732	0.214591	2.12778	0.373098	3.69475	0.841934	8.34049	0.634513	6.27123
0.373619	3.68483	0.216673	2.12877	0.374275	3.67252	0.845291	8.29716	0.63579	6.22651
0.3748	3.66282	0.218756	2.12973	0.37546	3.65077	0.848564	8.2538	0.637051	6.18245
0.375987	3.64127	0.220838	2.13068	0.37665	3.62947	0.851755	8.21044	0.638297	6.13903
0.377181	3.62016	0.22292	2.13161	0.377848	3.60861	0.854868	8.16709	0.639528	6.09625
0.378381	3.5995	0.225003	2.13252	0.379052	3.58819	0.857905	8.12379	0.640747	6.0541
0.379589	3.57926	0.227085	2.13341	0.380263	3.56818	0.860867	8.08056	0.641954	6.01257
0.380803	3.55944	0.229167	2.1343	0.381481	3.54858	0.863759	8.03741	0.643148	5.97165
0.382023	3.54001	0.231249	2.13516	0.382705	3.52938	0.866582	7.99437	0.644332	5.93133
0.38325	3.52099	0.233331	2.13601	0.383936	3.51056	0.869338	7.95145	0.645506	5.89161
0.384484	3.50234	0.235413	2.13684	0.385173	3.49213	0.87203	7.90868	0.646671	5.85247
0.385724	3.48407	0.237495	2.13766	0.386417	3.47406	0.87466	7.86606	0.647826	5.81391
0.38697	3.46616	0.239577	2.13847	0.387667	3.45634	0.87723	7.82362	0.648974	5.77591
0.388223	3.4486	0.241659	2.13926	0.388923	3.43898	0.879742	7.78137	0.650113	5.73847
0.389483	3.43139	0.243741	2.14004	0.390186	3.42196	0.882199	7.73932	0.651246	5.70157
0.390748	3.41451	0.245823	2.14081	0.391455	3.40526	0.884602	7.69748	0.652372	5.66522
0.39202	3.39796	0.247905	2.14156	0.392731	3.38889	0.886953	7.65587	0.653491	5.6294
0.393299	3.38173	0.249986	2.1423	0.394013	3.37284	0.889254	7.6145	0.654605	5.59409
0.394583	3.36582	0.252068	2.14303	0.395301	3.35709	0.891508	7.57338	0.655714	5.5593
0.395874	3.3502	0.25415	2.14375	0.396595	3.34164	0.893715	7.53251	0.656818	5.52502
0.397171	3.33488	0.256231	2.14445	0.397896	3.32648	0.895877	7.49191	0.657917	5.49123
0.398474	3.31985	0.258313	2.14515	0.399202	3.31161	0.897997	7.45157	0.659012	5.45793
0.399783	3.3051	0.260394	2.14583	0.400515	3.29702	0.900075	7.41152	0.660103	5.4251
0.401099	3.29063	0.262476	2.1465	0.401833	3.28269	0.902114	7.37175	0.661191	5.39275
0.40242	3.27643	0.264557	2.14716	0.403158	3.26864	0.904114	7.33227	0.662275	5.36086
0.403747	3.26248	0.266639	2.14782	0.404488	3.25484	0.906078	7.29309	0.663357	5.32942
0.40508	3.2488	0.26872	2.14846	0.405824	3.24129	0.908006	7.25421	0.664436	5.29843
0.406419	3.23536	0.270802	2.14909	0.407167	3.22799	0.909899	7.21563	0.665513	5.26788
0.407764	3.22217	0.272883	2.14971	0.408515	3.21493	0.91176	7.17736	0.666588	5.23776
0.409114	3.20921	0.274964	2.15033	0.409868	3.2021	0.91359	7.13939	0.667661	5.20806
0.410471	3.19649	0.277045	2.15093	0.411228	3.18951	0.915389	7.10175	0.668732	5.17878
0.411833	3.18399	0.279127	2.15153	0.412593	3.17714	0.917158	7.06441	0.669802	5.14991
0.4132	3.17172	0.281208	2.15211	0.413964	3.16499	0.9189	7.02739	0.670871	5.12144
0.414573	3.15966	0.283289	2.15269	0.41534	3.15305	0.920614	6.9907	0.671939	5.09337
0.415952	3.14782	0.28537	2.15326	0.416722	3.14132	0.922303	6.95432	0.673006	5.06568
0.417336	3.13618	0.287451	2.15382	0.418109	3.1298	0.923966	6.91826	0.674073	5.03838
0.418726	3.12475	0.289533	2.15437	0.419502	3.11847	0.925605	6.88252	0.675139	5.01145
0.420121	3.11351	0.291614	2.15492	0.4209	3.10734	0.927221	6.8471	0.676205	4.98488
0.421522	3.10247	0.293695	2.15546	0.422303	3.09641	0.928815	6.812	0.677271	4.95869
0.422927	3.09162	0.295776	2.15599	0.423712	3.08566	0.930387	6.77722	0.678337	4.93284
0.424339	3.08095	0.297857	2.15651	0.425126	3.07509	0.931939	6.74276	0.679404	4.90735
0.425755	3.07046	0.299938	2.15703	0.426545	3.0647	0.93347	6.70862	0.68047	4.8822
0.427176	3.06015	0.302019	2.15754	0.42797	3.05449	0.934983	6.6748	0.681538	4.85738
0.428603	3.05001	0.3041	2.15804	0.429399	3.04445	0.936477	6.64129	0.682606	4.8329
0.430035	3.04005	0.30618	2.15854	0.430834	3.03457	0.937954	6.6081	0.683674	4.80875
0.431472	3.03025	0.308261	2.15902	0.432273	3.02486	0.939413	6.57522	0.684744	4.78492
0.432914	3.02061	0.310342	2.15951	0.433718	3.01531	0.940856	6.54266	0.685814	4.7614
0.43436	3.01113	0.312423	2.15998	0.435168	3.00592	0.942284	6.5104	0.686886	4.73819
0.435812	3.0018	0.314504	2.16045	0.436622	2.99668	0.943696	6.47846	0.687959	4.71528
0.437269	2.99263	0.316585	2.16092	0.438081	2.98759	0.945094	6.44682	0.689033	4.69268
0.43873	2.98361	0.318665	2.16137	0.439546	2.97865	0.946478	6.41549	0.690109	4.67037
0.440197	2.97473	0.320746	2.16182	0.441015	2.96985	0.947848	6.38445	0.691186	4.64835
0.441668	2.966	0.322827	2.16227	0.442488	2.9612	0.949206	6.35373	0.692264	4.62661
0.443143	2.9574	0.324908	2.16271	0.443966	2.95268	0.950551	6.32329	0.693344	4.60516
0.444624	2.94895	0.326988	2.16315	0.445449	2.9443	0.951884	6.29316	0.694426	4.58398
0.446109	2.94063	0.329069	2.16357	0.446937	2.93605	0.953206	6.26332	0.69551	4.56306
0.447598	2.93244	0.33115	2.164	0.448429	2.92793	0.954517	6.23377	0.696595	4.54242
0.449092	2.92437	0.33323	2.16442	0.449926	2.91994	0.955817	6.20451	0.697683	4.52204
0.450591	2.91644	0.335311	2.16483	0.451427	2.91208	0.957107	6.17553	0.698772	4.50191
0.452094	2.90863	0.337391	2.16524	0.452932	2.90433	0.958387	6.14684	0.699864	4.48204
0.453602	2.90094	0.339472	2.16564	0.454442	2.89671	0.959658	6.11843	0.700957	4.46242
0.455114	2.89337	0.341553	2.16604	0.455957	2.8892	0.96092	6.0903	0.702053	4.44304
0.45663	2.88591	0.343633	2.16643	0.457475	2.88181	0.962173	6.06244	0.703151	4.4239
0.45815	2.87857	0.345714	2.16682	0.458998	2.87454	0.963418	6.03486	0.704251	4.405
0.459675	2.87134	0.347794	2.16721	0.460525	2.86737	0.964656	6.00755	0.705353	4.38634
0.461204	2.86423	0.349875	2.16759	0.462057	2.86031	0.965885	5.9805	0.706458	4.3679
0.462737	2.85722	0.351955	2.16796	0.463592	2.85336	0.967107	5.95373	0.707565	4.34969
0.464275	2.85031	0.354036	2.16833	0.465132	2.84651	0.968322	5.92721	0.708675	4.3317
0.465816	2.84351	0.356116	2.1687	0.466676	2.83977	0.969531	5.90095	0.709787	4.31393
0.467362	2.83681	0.358197	2.16906	0.468223	2.83312	0.970733	5.87495	0.710902	4.29638
0.468911	2.83021	0.360277	2.16942	0.469775	2.82658	0.971929	5.84921	0.712019	4.27903
0.470465	2.82371	0.362357	2.16978	0.471331	2.82013	0.973119	5.82372	0.713138	4.2619
0.472022	2.8173	0.364438	2.17013	0.472891	2.81378	0.974303	5.79847	0.714261	4.24497
0.473583	2.81099	0.366518	2.17047	0.474454	2.80752	0.975482	5.77348	0.715386	4.22825
0.475149	2.80477	0.368598	2.17082	0.476022	2.80135	0.976656	5.74872	0.716513	4.21172
0.476718	2.79864	0.370679	2.17115	0.477593	2.79527	0.977825	5.72421	0.717644	4.19538
0.478291	2.7926	0.372759	2.17149	0.479168	2.78927	0.978989	5.69994	0.718777	4.17925
0.479868	2.78665	0.374839	2.17182	0.480747	2.78337	0.980148	5.6759	0.719913	4.1633
0.481448	2.78078	0.37692	2.17215	0.482329	2.77755	0.981304	5.65209	0.721051	4.14753
0.483032	2.77499	0.379	2.17247	0.483915	2.77181	0.982455	5.62852	0.722193	4.13196
0.48462	2.76929	0.38108	2.17279	0.485505	2.76616	0.983602	5.60518	0.723337	4.11656
0.486211	2.76367	0.383161	2.17311	0.487099	2.76058	0.984746	5.58206	0.724484	4.10134
0.487806	2.75813	0.385241	2.17342	0.488696	2.75508	0.985886	5.55916	0.725634	4.0863
0.489405	2.75267	0.387321	2.17373	0.490296	2.74967	0.987022	5.53648	0.726786	4.07143
0.491007	2.74729	0.389401	2.17404	0.4919	2.74432	0.988156	5.51402	0.727942	4.05673
0.492613	2.74198	0.391482	2.17434	0.493508	2.73905	0.989287	5.49178	0.729101	4.04219
0.494222	2.73674	0.393562	2.17464	0.495119	2.73386	0.990414	5.46975	0.730262	4.02783
0.495835	2.73158	0.395642	2.17494	0.496733	2.72873	0.991539	5.44793	0.731426	4.01362
0.497451	2.72648	0.397722	2.17524	0.498351	2.72368	0.992661	5.42632	0.732594	3.99958
0.49907	2.72146	0.399802	2.17553	0.499972	2.7187	0.993781	5.40491	0.733764	3.9857
0.500693	2.71651	0.401882	2.17581	0.501597	2.71378	0.994899	5.38371	0.734937	3.97197
0.502319	2.71162	0.403963	2.1761	0.503225	2.70894	0.996014	5.36271	0.736113	3.95839
0.503948	2.70681	0.406043	2.17638	0.504856	2.70415	0.997128	5.34191	0.737293	3.94497
0.50558	2.70205	0.408123	2.17666	0.50649	2.69944	0.998239	5.3213	0.738475	3.93169
0.507216	2.69736	0.410203	2.17694	0.508128	2.69478	0.999349	5.30089	0.73966	3.91857
0.508855	2.69274	0.412283	2.17721	0.509768	2.69019	1.00046	5.28067	0.740848	3.90558
0.510497	2.68817	0.414363	2.17748	0.511412	2.68566			0.742039	3.89274
0.512142	2.68367	0.416443	2.17775	0.513059	2.68119			0.743233	3.88004
0.513791	2.67923	0.418523	2.17802	0.514709	2.67678			0.744431	3.86748
0.515442	2.67484	0.420603	2.17828	0.516362	2.67243			0.745631	3.85506
0.517096	2.67052	0.422683	2.17854	0.518018	2.66813			0.746834	3.84277
0.518754	2.66625	0.424763	2.1788	0.519677	2.6639			0.74804	3.83061
0.520414	2.66203	0.426843	2.17905	0.52134	2.65971			0.74925	3.81859
0.522078	2.65788	0.428923	2.17931	0.523005	2.65558			0.750462	3.80669
0.523744	2.65377	0.431004	2.17956	0.524672	2.65151			0.751678	3.79492
0.525413	2.64972	0.433084	2.17981	0.526343	2.64749			0.752896	3.78328
0.527085	2.64572	0.435163	2.18005	0.528017	2.64352			0.754117	3.77176
0.52876	2.64177	0.437243	2.1803	0.529693	2.6396			0.755342	3.76036
0.530438	2.63788	0.439323	2.18054	0.531373	2.63573			0.75657	3.74908
0.532119	2.63403	0.441403	2.18078	0.533055	2.63191			0.7578	3.73792
0.533802	2.63023	0.443483	2.18101	0.53474	2.62814			0.759034	3.72688
0.535488	2.62648	0.445563	2.18125	0.536427	2.62442			0.760271	3.71595
0.537177	2.62278	0.447643	2.18148	0.538118	2.62074			0.761511	3.70514
0.538868	2.61913	0.449723	2.18171	0.539811	2.61711			0.762753	3.69444
0.540563	2.61552	0.451803	2.18194	0.541506	2.61353			0.763999	3.68385
0.542259	2.61195	0.453883	2.18216	0.543205	2.60999			0.765248	3.67337
0.543959	2.60843	0.455963	2.18239	0.544906	2.60649			0.7665	3.66299
0.545661	2.60495	0.458043	2.18261	0.546609	2.60304			0.767755	3.65273
0.547365	2.60152	0.460123	2.18283	0.548315	2.59963			0.769013	3.64257
0.549073	2.59813	0.462203	2.18305	0.550024	2.59626			0.770274	3.63251
0.550782	2.59478	0.464282	2.18326	0.551735	2.59293			0.771538	3.62255
0.552495	2.59147	0.466362	2.18348	0.553448	2.58965			0.772805	3.6127
0.554209	2.5882	0.468442	2.18369	0.555165	2.5864			0.774075	3.60294
0.555926	2.58498	0.470522	2.1839	0.556883	2.5832			0.775348	3.59328
0.557646	2.58179	0.472602	2.18411	0.558604	2.58003			0.776624	3.58372
0.559368	2.57864	0.474682	2.18432	0.560327	2.5769			0.777903	3.57426
