Sym0		Sym1		Sym2		Sym3		Asym1		Asym2		Asym3	
405  Points		405  Points		379  Points		216  Points		400  Points		321  Points		194  Points	
Freq (MHz)	Vgr (m/ms)	Freq (MHz)	Vgr (m/ms)	Freq (MHz)	Vgr (m/ms)	Freq (MHz)	Vgr (m/ms)	Freq (MHz)	Vgr (m/ms)	Freq (MHz)	Vgr (m/ms)	Freq (MHz)	Vgr (m/ms)
1.00064	2.06065	1.00131	2.06218	0.433046	0.305579	0.866025	-0.00110875	0.216514	0.0702772	1.00091	1.35404	0.833856	0.0315317
0.998586	2.0582	0.999258	2.05976	0.43335	0.451208	0.866024	-0.00163476	0.216584	0.106991	0.999558	1.35616	0.833887	0.0444307
0.996539	2.05343	0.997208	2.05501	0.433945	0.717545	0.866022	-0.00260614	0.216727	0.180301	0.998205	1.36062	0.833944	0.0701285
0.994496	2.04884	0.995164	2.05037	0.43478	0.932951	0.866019	-0.00359564	0.216943	0.253259	0.996847	1.36529	0.834027	0.0957858
0.992457	2.04434	0.993124	2.04577	0.435803	1.09997	0.866015	-0.00462136	0.217232	0.325687	0.995485	1.37013	0.834135	0.121362
0.990423	2.03994	0.991089	2.04133	0.436971	1.22714	0.86601	-0.00554621	0.217592	0.3974	0.994118	1.37522	0.834269	0.146863
0.988394	2.03563	0.989058	2.03706	0.438248	1.3241	0.866004	-0.00652928	0.218023	0.468291	0.992745	1.38054	0.834428	0.172299
0.986368	2.03144	0.987031	2.03283	0.439608	1.39896	0.865997	-0.0074555	0.218525	0.538231	0.991368	1.38608	0.834612	0.197606
0.984347	2.02739	0.985008	2.02871	0.441034	1.45768	0.865989	-0.00835465	0.219095	0.607134	0.989984	1.39186	0.834821	0.222741
0.98233	2.02353	0.982989	2.02473	0.442512	1.50475	0.86598	-0.00928636	0.219734	0.674832	0.988595	1.39787	0.835056	0.247708
0.980316	2.01972	0.980975	2.02091	0.444032	1.54325	0.86597	-0.0101098	0.22044	0.741244	0.9872	1.40409	0.835315	0.272595
0.978306	2.01607	0.978964	2.01727	0.445586	1.57529	0.86596	-0.0108901	0.221211	0.806301	0.985798	1.41056	0.835599	0.297238
0.9763	2.0126	0.976956	2.01371	0.44717	1.60252	0.865949	-0.0116708	0.222046	0.869859	0.98439	1.41725	0.835907	0.321652
0.974297	2.00921	0.974952	2.01032	0.448779	1.62604	0.865937	-0.0124523	0.222944	0.931891	0.982975	1.42422	0.836239	0.345868
0.972298	2.00606	0.972952	2.00709	0.450409	1.64658	0.865924	-0.0131486	0.223902	0.992345	0.981553	1.43141	0.836596	0.369861
0.970301	2.00306	0.970954	2.004	0.452059	1.66485	0.865911	-0.0137611	0.22492	1.05121	0.980123	1.43884	0.836976	0.393669
0.968307	2.00019	0.96896	2.00113	0.453726	1.6813	0.865897	-0.0143797	0.225996	1.10835	0.978686	1.44651	0.83738	0.417194
0.966317	1.99756	0.966968	1.99841	0.455408	1.69617	0.865882	-0.0149234	0.227128	1.16379	0.977242	1.4544	0.837807	0.440411
0.964328	1.99506	0.964979	1.99584	0.457104	1.70979	0.865867	-0.0154043	0.228315	1.21749	0.975789	1.46255	0.838257	0.463361
0.962342	1.99277	0.962992	1.99347	0.458814	1.72238	0.865851	-0.0158462	0.229554	1.2695	0.974328	1.47097	0.83873	0.486034
0.960358	1.99069	0.961007	1.99133	0.460536	1.73405	0.865835	-0.01621	0.230844	1.31978	0.972859	1.47958	0.839226	0.508417
0.958377	1.98878	0.959025	1.98939	0.462268	1.7449	0.865819	-0.0165042	0.232183	1.36828	0.971381	1.4884	0.839743	0.530476
0.956397	1.98713	0.957045	1.98767	0.464011	1.75508	0.865802	-0.0167459	0.233569	1.41508	0.969894	1.49753	0.840282	0.552237
0.954418	1.98565	0.955066	1.98615	0.465764	1.76469	0.865786	-0.0168828	0.235002	1.46017	0.968398	1.50687	0.840843	0.573659
0.952441	1.98443	0.953088	1.98484	0.467527	1.77377	0.865769	-0.0169832	0.236478	1.50363	0.966892	1.51645	0.841425	0.594751
0.950465	1.98347	0.951112	1.98377	0.469298	1.78239	0.865752	-0.0170108	0.237799	1.54023	0.965377	1.52625	0.842028	0.61553
0.94849	1.98275	0.949136	1.98293	0.471077	1.79055	0.865735	-0.0168926	0.23895	1.57042	0.963852	1.53624	0.842651	0.635942
0.946515	1.98225	0.947162	1.98238	0.472865	1.79828	0.865718	-0.0167428	0.239918	1.59469	0.962317	1.5465	0.843295	0.655967
0.944541	1.98205	0.945187	1.98206	0.47466	1.80568	0.865702	-0.0165298	0.240695	1.61341	0.960771	1.55698	0.843958	0.675653
0.942567	1.98209	0.943213	1.98203	0.476462	1.81277	0.865685	-0.0161906	0.241271	1.627	0.959215	1.56762	0.844641	0.695006
0.940593	1.98241	0.941239	1.98231	0.478271	1.8195	0.865669	-0.0157722	0.241642	1.63563	0.957648	1.5785	0.845342	0.713954
0.938618	1.98306	0.939264	1.98279	0.480086	1.82593	0.865654	-0.015282	0.24218	1.64778	0.956071	1.5896	0.846063	0.732523
0.936642	1.98393	0.937289	1.98359	0.481908	1.83213	0.865639	-0.0146482	0.242768	1.66074	0.954482	1.60089	0.846802	0.75077
0.934666	1.98514	0.935313	1.98473	0.483736	1.83802	0.865625	-0.0139005	0.243576	1.67817	0.952882	1.61237	0.847558	0.768632
0.932688	1.98671	0.933335	1.98616	0.48557	1.84365	0.865611	-0.0130985	0.244609	1.6997	0.95127	1.62397	0.848333	0.786069
0.930708	1.98853	0.931356	1.98789	0.487409	1.84903	0.865598	-0.0121879	0.245876	1.72493	0.949647	1.63582	0.849124	0.803178
0.928727	1.99071	0.929376	1.98996	0.489253	1.85422	0.865587	-0.0111465	0.247386	1.75357	0.948011	1.64782	0.849933	0.819891
0.926743	1.99324	0.927392	1.99237	0.491102	1.85916	0.865576	-0.010017	0.249149	1.78515	0.946364	1.65996	0.850758	0.836158
0.924756	1.99605	0.925407	1.99511	0.492956	1.86383	0.865567	-0.00879801	0.250942	1.8154	0.944705	1.67227	0.851598	0.852139
0.922767	1.99925	0.923418	1.99816	0.494815	1.86832	0.865559	-0.0073999	0.252765	1.84427	0.943033	1.68467	0.852455	0.867722
0.920774	2.00279	0.921426	2.00158	0.496678	1.87262	0.865552	-0.0059036	0.254616	1.87187	0.941349	1.69726	0.853327	0.882856
0.918777	2.00666	0.919431	2.00539	0.498546	1.87672	0.865547	-0.00429759	0.256494	1.89829	0.939652	1.70996	0.854214	0.897612
0.916776	2.01093	0.917431	2.00953	0.500417	1.88058	0.865544	-0.0025588	0.258398	1.92349	0.937942	1.7227	0.855115	0.912044
0.914771	2.01558	0.915428	2.014	0.502292	1.88423	0.865542	-0.000727795	0.260326	1.94754	0.93622	1.73561	0.856031	0.92609
0.912761	2.02054	0.913419	2.01887	0.50417	1.88771	0.865542	0.00128765	0.262277	1.97044	0.934485	1.74862	0.85696	0.939708
0.910746	2.02586	0.911406	2.0241	0.506052	1.89103	0.865544	0.00341199	0.264251	1.99228	0.932737	1.76163	0.857903	0.952992
0.908725	2.03157	0.909387	2.02963	0.507937	1.89413	0.865549	0.00566747	0.266246	2.01309	0.930976	1.77474	0.858858	0.965869
0.906699	2.03762	0.907363	2.03557	0.509825	1.89702	0.865556	0.00801188	0.268261	2.03285	0.929201	1.78788	0.859827	0.978362
0.904666	2.04399	0.905332	2.04191	0.511716	1.89977	0.865565	0.0105342	0.270295	2.0517	0.927414	1.80106	0.860807	0.990524
0.902627	2.05076	0.903295	2.04851	0.51361	1.90233	0.865577	0.0132389	0.272348	2.06962	0.925614	1.81435	0.8618	1.00228
0.900581	2.05787	0.901252	2.05548	0.515506	1.90467	0.865591	0.0160485	0.274418	2.08659	0.9238	1.82758	0.862804	1.01366
0.898528	2.06526	0.899201	2.06284	0.517404	1.90683	0.865609	0.0189813	0.276505	2.1027	0.921973	1.84077	0.863819	1.02472
0.896467	2.07302	0.897142	2.07045	0.519304	1.90883	0.865629	0.0220737	0.278607	2.118	0.920133	1.85399	0.864845	1.03541
0.894398	2.08108	0.895076	2.07839	0.521206	1.91066	0.865653	0.0253119	0.280724	2.13249	0.91828	1.86717	0.865882	1.04569
0.892321	2.08941	0.893002	2.08664	0.522865	1.91213	0.865679	0.0286686	0.282855	2.14619	0.916413	1.88034	0.866928	1.05558
0.890236	2.09801	0.89092	2.09516	0.524281	1.9133	0.86571	0.0322622	0.284999	2.15911	0.914534	1.89344	0.867984	1.06515
0.888142	2.10688	0.888828	2.10398	0.525452	1.91408	0.865744	0.0359829	0.287156	2.17133	0.912642	1.90647	0.86905	1.0744
0.886039	2.11605	0.886728	2.11303	0.526378	1.91469	0.865781	0.0397846	0.289325	2.18286	0.910736	1.91943	0.870125	1.08329
0.883927	2.12537	0.884619	2.1223	0.527059	1.91535	0.865823	0.0438348	0.291504	2.19369	0.908818	1.93227	0.871208	1.09179
0.881805	2.13491	0.882501	2.13173	0.527495	1.91555	0.865869	0.0480355	0.293695	2.20388	0.906887	1.94503	0.8723	1.09995
0.879674	2.14464	0.880373	2.14142	0.528122	1.91581	0.865919	0.0523637	0.295895	2.21339	0.904943	1.95774	0.873399	1.10777
0.877533	2.15447	0.878235	2.15125	0.528804	1.91628	0.865973	0.0568605	0.298104	2.2223	0.902987	1.97023	0.874506	1.11528
0.875382	2.16452	0.876087	2.16122	0.529731	1.91667	0.866032	0.061521	0.300322	2.23066	0.901019	1.98257	0.875621	1.1224
0.873221	2.17465	0.87393	2.17136	0.530904	1.91726	0.866096	0.0663355	0.302547	2.23844	0.899038	1.99484	0.876742	1.12919
0.87105	2.18485	0.871762	2.1815	0.532322	1.91779	0.866164	0.0713716	0.304781	2.24562	0.897045	2.00692	0.87787	1.13567
0.868869	2.19511	0.869584	2.19173	0.533987	1.91832	0.866238	0.0765907	0.307021	2.25224	0.89504	2.01877	0.879004	1.14179
0.866677	2.20542	0.867396	2.20204	0.535898	1.91885	0.866317	0.0819159	0.309267	2.25837	0.893023	2.03051	0.880145	1.1476
0.864476	2.21572	0.865197	2.21236	0.53781	1.91911	0.866401	0.0874532	0.311519	2.26395	0.890995	2.04202	0.881291	1.15308
0.862264	2.226	0.862989	2.22268	0.539721	1.91925	0.866491	0.0931549	0.313777	2.26903	0.888955	2.05335	0.882442	1.15824
0.860041	2.23633	0.86077	2.23292	0.541633	1.91923	0.866587	0.099012	0.316039	2.27365	0.886905	2.06449	0.883598	1.16309
0.857809	2.24652	0.858541	2.24317	0.543544	1.91896	0.866688	0.105093	0.318306	2.27778	0.884843	2.07533	0.884759	1.16759
0.855566	2.25667	0.856301	2.25336	0.545456	1.91856	0.866796	0.111362	0.320577	2.28145	0.88277	2.086	0.885924	1.17173
0.853313	2.26673	0.854052	2.26343	0.547366	1.91802	0.86691	0.117748	0.322851	2.28467	0.880688	2.09641	0.887093	1.17561
0.851051	2.27664	0.851792	2.27343	0.549276	1.91727	0.86703	0.124366	0.325128	2.28745	0.878594	2.10659	0.888266	1.17919
0.848778	2.28649	0.849523	2.2833	0.551186	1.91633	0.867158	0.131189	0.327408	2.2898	0.876491	2.11654	0.889442	1.18246
0.846496	2.29613	0.847244	2.29298	0.553094	1.91521	0.867292	0.138162	0.32969	2.29171	0.874378	2.12621	0.890621	1.18545
0.844204	2.30563	0.844955	2.30254	0.555001	1.91396	0.867433	0.145349	0.331973	2.29318	0.872256	2.13559	0.891803	1.18805
0.841903	2.315	0.842657	2.31196	0.556906	1.91255	0.867581	0.152704	0.334258	2.29426	0.870124	2.14473	0.892988	1.19039
0.839593	2.32421	0.84035	2.32119	0.558811	1.9109	0.867737	0.16022	0.336543	2.29498	0.867983	2.15357	0.894175	1.19247
0.837273	2.33318	0.838033	2.33027	0.560713	1.90912	0.867901	0.167973	0.338829	2.29525	0.865834	2.16214	0.895363	1.19419
0.834945	2.34195	0.835708	2.33909	0.562614	1.90718	0.868072	0.175939	0.341115	2.29517	0.863676	2.17045	0.896553	1.19565
0.832608	2.35054	0.833374	2.34772	0.564512	1.90501	0.868251	0.184071	0.343401	2.29469	0.86151	2.17841	0.897745	1.19684
0.830262	2.3589	0.831031	2.35621	0.566409	1.90266	0.868438	0.192364	0.345687	2.29385	0.859337	2.18608	0.898938	1.19773
0.827909	2.36704	0.82868	2.36444	0.568302	1.90014	0.868634	0.200889	0.347971	2.29265	0.857155	2.19345	0.900131	1.19831
0.825547	2.37499	0.826321	2.37242	0.570194	1.8975	0.868812	0.208479	0.350254	2.29105	0.854967	2.20057	0.901325	1.1986
0.823178	2.38275	0.823954	2.38022	0.572082	1.89466	0.868968	0.214984	0.352535	2.28913	0.852772	2.20734	0.902519	1.19866
0.820801	2.3903	0.821579	2.38786	0.573968	1.89159	0.869102	0.220557	0.354814	2.28682	0.85057	2.21379	0.903712	1.19843
0.818416	2.3976	0.819197	2.39524	0.57585	1.88837	0.869209	0.225	0.35709	2.28415	0.848362	2.21994	0.904752	1.19796
0.816024	2.40467	0.816808	2.40238	0.57773	1.88498	0.86929	0.22813	0.359364	2.28117	0.846148	2.22572	0.905639	1.1975
0.813626	2.41151	0.814412	2.4093	0.579605	1.88143	0.869342	0.230261	0.361634	2.2779	0.843928	2.23123	0.906371	1.19698
0.811221	2.41817	0.812008	2.41603	0.581478	1.8777	0.869418	0.233394	0.363902	2.27419	0.841703	2.23643	0.90695	1.19639
0.808809	2.42466	0.809599	2.42256	0.583346	1.8738	0.869502	0.236707	0.366165	2.27017	0.839473	2.24129	0.907376	1.19602
0.806391	2.43087	0.807183	2.42885	0.58521	1.86968	0.869617	0.241366	0.368424	2.2659	0.837238	2.2458	0.907648	1.19571
0.803966	2.43688	0.80476	2.43493	0.58707	1.86537	0.869767	0.247234	0.370678	2.26121	0.834999	2.24998	0.908039	1.19531
0.801536	2.44274	0.802332	2.44085	0.588926	1.86092	0.869952	0.254429	0.372928	2.25622	0.832756	2.25383	0.908464	1.19486
0.7991	2.44841	0.799898	2.44655	0.590777	1.85626	0.870177	0.263042	0.375173	2.25091	0.83051	2.25738	0.909042	1.19406
0.796659	2.45384	0.797458	2.45205	0.592624	1.85142	0.870444	0.273039	0.377412	2.24527	0.828259	2.26057	0.909773	1.1931
0.794212	2.45908	0.795013	2.45742	0.594466	1.84645	0.870721	0.283323	0.379646	2.23937	0.826006	2.26339	0.910655	1.19171
0.79176	2.46418	0.792563	2.46253	0.596302	1.84127	0.871008	0.293752	0.381873	2.23313	0.823751	2.26591	0.911688	1.18994
0.789303	2.46909	0.790108	2.46746	0.598133	1.83591	0.871306	0.304339	0.384094	2.22654	0.821493	2.26811	0.912873	1.18767
0.786842	2.4738	0.787648	2.47229	0.599959	1.83042	0.871615	0.315179	0.386309	2.21969	0.819232	2.26989	0.914054	1.1852
0.784375	2.47837	0.785183	2.47693	0.60178	1.82472	0.871934	0.326232	0.388516	2.21254	0.816971	2.27138	0.915234	1.18249
0.781905	2.48274	0.782714	2.48135	0.603594	1.8188	0.872264	0.337435	0.390716	2.20507	0.814708	2.27254	0.91641	1.17948
0.77943	2.48698	0.78024	2.4856	0.605403	1.81271	0.872606	0.348842	0.392909	2.1973	0.812444	2.2733	0.917583	1.17629
0.77695	2.49112	0.777762	2.48977	0.607205	1.80647	0.872959	0.360483	0.395093	2.18926	0.810179	2.27378	0.918753	1.17288
0.774467	2.49508	0.77528	2.49378	0.609001	1.80009	0.873324	0.372282	0.39727	2.18095	0.807914	2.27387	0.91992	1.16918
0.77198	2.49882	0.772795	2.49763	0.610791	1.79353	0.873701	0.384292	0.399438	2.17228	0.80565	2.27362	0.921082	1.16533
0.769489	2.50251	0.770305	2.50135	0.612574	1.78673	0.87409	0.396493	0.401597	2.1634	0.803385	2.27303	0.922241	1.16124
0.766995	2.50605	0.767812	2.50488	0.61435	1.77978	0.874491	0.408876	0.403747	2.15424	0.801122	2.27203	0.923395	1.15695
0.764497	2.50943	0.765315	2.50832	0.61612	1.77271	0.874904	0.421438	0.405888	2.14476	0.798859	2.27073	0.924546	1.15246
0.761996	2.5127	0.762815	2.51162	0.617882	1.76545	0.87533	0.434218	0.40802	2.13504	0.796598	2.26906	0.925691	1.14774
0.759492	2.51587	0.760312	2.51486	0.619637	1.75801	0.875769	0.447151	0.410141	2.12507	0.794339	2.26704	0.926832	1.14292
0.756984	2.51892	0.757805	2.51796	0.621384	1.75043	0.876221	0.46029	0.412253	2.11488	0.792082	2.26464	0.927968	1.13782
0.754474	2.52181	0.755296	2.52087	0.623123	1.74265	0.876686	0.47362	0.414354	2.10441	0.789828	2.26192	0.929099	1.13254
0.751961	2.52465	0.752784	2.52373	0.624855	1.73474	0.877164	0.487087	0.416445	2.09368	0.787576	2.25881	0.930224	1.12717
0.749445	2.52737	0.750268	2.5265	0.626579	1.7267	0.877656	0.500754	0.418525	2.08268	0.785328	2.25529	0.931344	1.12158
0.746926	2.52997	0.747751	2.52911	0.628295	1.71844	0.878162	0.514607	0.420594	2.0715	0.783084	2.25146	0.932458	1.11584
0.744405	2.53247	0.74523	2.53164	0.630002	1.71002	0.878682	0.528596	0.422652	2.0601	0.780843	2.24725	0.933567	1.10994
0.741881	2.53487	0.742708	2.53409	0.631701	1.70156	0.879215	0.542784	0.424698	2.04847	0.778607	2.24265	0.934669	1.10386
0.739355	2.53724	0.740182	2.53649	0.633392	1.69287	0.879763	0.557157	0.426732	2.03667	0.776376	2.2377	0.935766	1.09771
0.736827	2.53947	0.737655	2.53877	0.635074	1.68402	0.880325	0.571623	0.428755	2.02462	0.774149	2.23238	0.936856	1.09142
0.734297	2.5416	0.735125	2.54091	0.636747	1.67504	0.880901	0.586266	0.430765	2.01236	0.771929	2.22669	0.93794	1.08499
0.731764	2.54369	0.732593	2.54302	0.63841	1.66596	0.881493	0.601084	0.432764	1.99999	0.769714	2.2206	0.939017	1.07839
0.729229	2.5457	0.730059	2.54506	0.640065	1.65674	0.882099	0.616032	0.434749	1.98743	0.767505	2.21413	0.940088	1.07176
0.726693	2.54764	0.727523	2.54699	0.641711	1.64737	0.88272	0.631132	0.436723	1.97465	0.765303	2.20727	0.941152	1.06502
0.724154	2.54943	0.724985	2.54885	0.643347	1.63787	0.883356	0.646395	0.438683	1.96176	0.763108	2.20003	0.94221	1.05814
0.721614	2.5512	0.722446	2.55066	0.644973	1.62827	0.884008	0.661783	0.440631	1.94878	0.760921	2.19241	0.94326	1.05123
0.719072	2.55293	0.719904	2.55239	0.64659	1.61857	0.884674	0.677233	0.442565	1.93565	0.758741	2.18436	0.944304	1.04422
0.716529	2.55456	0.717361	2.55401	0.648198	1.60869	0.885357	0.692844	0.444486	1.92233	0.756569	2.17598	0.94534	1.03712
0.713984	2.55617	0.714817	2.55561	0.649795	1.59877	0.886055	0.708623	0.446394	1.90896	0.754406	2.16719	0.94637	1.02998
0.711437	2.55766	0.71227	2.55716	0.651383	1.58874	0.886768	0.724441	0.448289	1.89551	0.752252	2.15801	0.947392	1.02281
0.708889	2.55908	0.709723	2.55862	0.65296	1.57862	0.887498	0.74041	0.45017	1.88194	0.750107	2.14841	0.948407	1.01558
0.706339	2.56045	0.707174	2.56006	0.654527	1.5684	0.888243	0.756454	0.452038	1.86835	0.747972	2.13838	0.949415	1.00833
0.703788	2.56179	0.704623	2.56138	0.656084	1.55804	0.889005	0.772622	0.453892	1.85467	0.745847	2.12796	0.950416	1.00106
0.701236	2.5631	0.702071	2.56263	0.657631	1.54767	0.889782	0.788852	0.455733	1.84093	0.743733	2.11716	0.951409	0.993749
0.698682	2.56432	0.699518	2.56392	0.659167	1.53723	0.890576	0.805114	0.457559	1.82722	0.74163	2.10597	0.952395	0.986408
0.696127	2.56547	0.696964	2.56512	0.660693	1.52669	0.891386	0.821564	0.459373	1.81352	0.739538	2.09433	0.953374	0.979141
0.693572	2.56655	0.694408	2.56622	0.662209	1.51609	0.892213	0.838022	0.461172	1.79974	0.737458	2.08231	0.954346	0.971824
0.691015	2.56767	0.691852	2.5673	0.663713	1.5055	0.893055	0.854484	0.462958	1.786	0.73539	2.0699	0.95531	0.964526
0.688457	2.5687	0.689294	2.56832	0.665208	1.49479	0.893915	0.871034	0.46473	1.77233	0.733335	2.05702	0.956267	0.957324
0.685898	2.56963	0.686735	2.56932	0.666691	1.48402	0.894791	0.887672	0.466488	1.75864	0.731292	2.04374	0.957217	0.950083
0.683338	2.57054	0.684176	2.57028	0.668164	1.4733	0.895683	0.90431	0.468233	1.74509	0.729263	2.0301	0.95816	0.942909
0.680777	2.57141	0.681615	2.57117	0.669626	1.46253	0.896592	0.920992	0.469965	1.73155	0.727248	2.01599	0.959096	0.93577
0.678216	2.57228	0.679054	2.572	0.671077	1.45168	0.897518	0.937696	0.471682	1.71811	0.725247	2.00147	0.960024	0.92869
0.675653	2.57307	0.676492	2.57279	0.672518	1.44084	0.89846	0.954368	0.473387	1.7048	0.723261	1.98656	0.960946	0.921727
0.67309	2.57379	0.673929	2.57358	0.673947	1.43005	0.899419	0.971066	0.475079	1.69156	0.72129	1.97119	0.96186	0.914822
0.670526	2.57452	0.671365	2.5743	0.675366	1.41924	0.900394	0.987778	0.476757	1.67844	0.719335	1.95546	0.962768	0.90799
0.667961	2.57521	0.668801	2.57496	0.676775	1.40841	0.901387	1.0045	0.478422	1.66551	0.717395	1.93934	0.963669	0.901238
0.665396	2.5758	0.666236	2.57558	0.678172	1.39759	0.902395	1.02113	0.480075	1.65272	0.715471	1.92277	0.964563	0.894568
0.66283	2.57638	0.66367	2.57622	0.679559	1.3868	0.903421	1.03777	0.481714	1.64008	0.713565	1.90577	0.965451	0.888027
0.660264	2.57694	0.661104	2.5768	0.680935	1.37608	0.904463	1.05441	0.483342	1.62766	0.711675	1.88839	0.966332	0.881637
0.657697	2.57744	0.658537	2.57726	0.6823	1.36539	0.905521	1.07096	0.484957	1.61538	0.709803	1.87062	0.967207	0.875322
0.655129	2.57793	0.65597	2.57777	0.683655	1.35471	0.906596	1.08751	0.48656	1.60334	0.707949	1.85242	0.968076	0.869131
0.652561	2.57838	0.653402	2.57825	0.684999	1.34409	0.907688	1.10393	0.488151	1.59148	0.706113	1.83387	0.968939	0.863089
0.649993	2.57877	0.650834	2.57862	0.686332	1.33353	0.908795	1.12029	0.48973	1.57987	0.704295	1.81488	0.969795	0.857165
0.647424	2.57912	0.648265	2.579	0.687655	1.32305	0.909919	1.13666	0.491298	1.56852	0.702497	1.79553	0.970646	0.851387
0.644855	2.57946	0.645696	2.57933	0.688968	1.31266	0.911059	1.15286	0.492854	1.55734	0.700719	1.77581	0.971491	0.845811
0.642286	2.57971	0.643127	2.57964	0.69027	1.30235	0.912216	1.16893	0.4944	1.54651	0.69896	1.75569	0.972331	0.84038
0.639717	2.57996	0.640557	2.57992	0.691562	1.29208	0.913388	1.18499	0.495935	1.53589	0.697221	1.73521	0.973165	0.835064
0.637147	2.58019	0.637988	2.58014	0.692844	1.28192	0.914576	1.20094	0.49746	1.52551	0.695503	1.71436	0.973994	0.829937
0.634577	2.5804	0.635418	2.5803	0.694116	1.2719	0.91578	1.21672	0.498974	1.51543	0.693806	1.6932	0.974819	0.824947
0.632006	2.58056	0.632848	2.58047	0.695377	1.26195	0.917	1.23241	0.500479	1.50566	0.69213	1.67168	0.975638	0.820198
0.629436	2.58061	0.630277	2.58062	0.696629	1.25212	0.918235	1.24796	0.501973	1.49619	0.690476	1.64979	0.976452	0.815658
0.626866	2.58072	0.627707	2.58067	0.697872	1.2424	0.919486	1.26337	0.503459	1.48694	0.688844	1.62757	0.977263	0.811221
