Sym0		Sym1		Sym2		Sym3		Asym1		Asym2		Asym3	
400  Points		400  Points		378  Points		212  Points		400  Points		311  Points		171  Points	
Freq (MHz)	Vgr (m/ms)	Freq (MHz)	Vgr (m/ms)	Freq (MHz)	Vgr (m/ms)	Freq (MHz)	Vgr (m/ms)	Freq (MHz)	Vgr (m/ms)	Freq (MHz)	Vgr (m/ms)	Freq (MHz)	Vgr (m/ms)
1.00154	2.03088	1.00108	2.03054	0.435527	1.28534	0.866025	0.000539326	0.216507	0.0474782	1.00094	1.52412	0.870459	0.0114927
0.99952	2.03022	0.999058	2.02992	0.436807	1.39673	0.866026	0.000840094	0.216554	0.0843385	0.999424	1.52816	0.870471	0.0219671
0.997499	2.02903	0.997036	2.02875	0.438309	1.53746	0.866027	0.00148241	0.216675	0.158002	0.997898	1.53638	0.870503	0.0429907
0.995478	2.02802	0.995016	2.0278	0.43987	1.5807	0.866029	0.00207376	0.216869	0.231319	0.996363	1.54486	0.870556	0.0640659
0.993459	2.02723	0.992997	2.02711	0.441458	1.60364	0.866031	0.00264983	0.217136	0.304118	0.99482	1.55348	0.870631	0.085071
0.99144	2.02668	0.990978	2.02661	0.443064	1.6198	0.866034	0.003282	0.217475	0.376315	0.993269	1.56233	0.870726	0.106022
0.989422	2.02636	0.98896	2.02629	0.444685	1.63297	0.866038	0.0039397	0.217885	0.447739	0.991708	1.57145	0.870842	0.126953
0.987403	2.02625	0.986942	2.02625	0.446317	1.64458	0.866042	0.00456182	0.218367	0.518225	0.990138	1.58068	0.870979	0.147757
0.985385	2.02637	0.984923	2.02645	0.447961	1.65523	0.866047	0.00519943	0.218918	0.587701	0.988559	1.59012	0.871136	0.168477
0.983367	2.02679	0.982905	2.02692	0.449614	1.66517	0.866052	0.00595469	0.219538	0.656024	0.986971	1.59982	0.871314	0.189207
0.981348	2.02744	0.980886	2.02761	0.451278	1.67474	0.866059	0.00668525	0.220225	0.723081	0.985372	1.60968	0.871513	0.209781
0.979328	2.02833	0.978866	2.02855	0.452951	1.68393	0.866066	0.00736641	0.220978	0.788821	0.983764	1.6197	0.871732	0.230217
0.977307	2.02948	0.976845	2.02982	0.454632	1.69276	0.866073	0.00812211	0.221796	0.85305	0.982146	1.62993	0.871972	0.250551
0.975285	2.03092	0.974822	2.03133	0.456323	1.70141	0.866082	0.00894022	0.222677	0.915819	0.980517	1.64036	0.872231	0.270765
0.973262	2.03268	0.972798	2.03313	0.458021	1.70979	0.866091	0.00979649	0.22362	0.977055	0.978878	1.65089	0.872511	0.290829
0.971236	2.03472	0.970772	2.03518	0.459729	1.71788	0.866101	0.0106424	0.224624	1.03661	0.977229	1.66165	0.872811	0.310765
0.969208	2.03699	0.968744	2.03754	0.461444	1.72583	0.866112	0.0115543	0.225685	1.09454	0.975568	1.67258	0.87313	0.330531
0.967178	2.03961	0.966713	2.04027	0.463166	1.73359	0.866124	0.0125114	0.226804	1.15077	0.973897	1.68363	0.873469	0.350131
0.965145	2.04251	0.96468	2.04322	0.464897	1.74113	0.866137	0.0134725	0.227978	1.20527	0.972214	1.6948	0.873827	0.369572
0.963109	2.04572	0.962643	2.04651	0.466635	1.7485	0.866151	0.0145279	0.229205	1.25801	0.970521	1.70613	0.874205	0.388782
0.96107	2.04927	0.960603	2.05014	0.46838	1.7557	0.866166	0.0155989	0.230484	1.30907	0.968816	1.71761	0.874602	0.407877
0.959027	2.05309	0.958559	2.05403	0.470132	1.76274	0.866182	0.0167008	0.231813	1.35841	0.967099	1.72923	0.875018	0.426742
0.95698	2.05725	0.956511	2.05825	0.471892	1.76953	0.8662	0.0178648	0.23319	1.40596	0.965371	1.74094	0.875452	0.445319
0.954929	2.06176	0.954459	2.0628	0.473657	1.77619	0.866218	0.0191529	0.234613	1.45185	0.963631	1.75273	0.875905	0.463754
0.952873	2.06654	0.952402	2.06764	0.47543	1.78273	0.866238	0.020429	0.235891	1.49057	0.961879	1.76463	0.876376	0.481991
0.950812	2.0716	0.95034	2.07282	0.477209	1.78906	0.866259	0.0217681	0.237006	1.52254	0.960116	1.77664	0.876865	0.500007
0.948746	2.07703	0.948273	2.07833	0.478994	1.79522	0.866281	0.023233	0.237945	1.54819	0.95834	1.78871	0.877372	0.517754
0.946675	2.08277	0.9462	2.08415	0.480785	1.80122	0.866305	0.0246896	0.238699	1.56814	0.956553	1.80079	0.877896	0.535222
0.944597	2.0888	0.944121	2.09024	0.482582	1.80706	0.86633	0.0262162	0.239259	1.58265	0.954753	1.81299	0.878438	0.55248
0.942514	2.09514	0.942036	2.09661	0.484385	1.81276	0.866357	0.027796	0.239621	1.59174	0.952941	1.82527	0.878997	0.56949
0.940424	2.10176	0.939945	2.1033	0.486193	1.81826	0.866386	0.0294826	0.240144	1.60467	0.951117	1.83751	0.879573	0.586263
0.938327	2.10866	0.937846	2.11026	0.488007	1.82363	0.866416	0.0312957	0.240717	1.61849	0.949281	1.84977	0.880165	0.602738
0.936223	2.1158	0.935741	2.1175	0.489826	1.82884	0.866448	0.0331022	0.241504	1.63693	0.947432	1.86208	0.880773	0.618963
0.934112	2.12322	0.933628	2.12496	0.49165	1.83387	0.866482	0.0349818	0.242513	1.65986	0.945571	1.8744	0.881398	0.634946
0.931994	2.13097	0.931508	2.1327	0.493479	1.83874	0.866518	0.0370078	0.243751	1.68675	0.943698	1.88672	0.882038	0.65062
0.929867	2.13883	0.92938	2.14072	0.495313	1.84346	0.866556	0.0390667	0.245229	1.71728	0.941813	1.89898	0.882694	0.666022
0.927733	2.14694	0.927244	2.14887	0.497151	1.84803	0.866595	0.0411912	0.246956	1.75096	0.939915	1.91118	0.883365	0.681141
0.925591	2.15534	0.925099	2.15721	0.498994	1.85241	0.866638	0.0434469	0.248717	1.78332	0.938006	1.92337	0.884051	0.695953
0.92344	2.16384	0.922946	2.16581	0.500841	1.85667	0.866682	0.0457919	0.250509	1.81423	0.936084	1.93553	0.884751	0.710497
0.92128	2.17251	0.920785	2.17453	0.502693	1.86076	0.866729	0.0482287	0.252331	1.84381	0.93415	1.94762	0.885466	0.724767
0.919112	2.18136	0.918614	2.18339	0.504548	1.86471	0.866778	0.0507625	0.254182	1.87216	0.932204	1.95959	0.886195	0.738748
0.916935	2.1903	0.916435	2.19235	0.506407	1.86852	0.86683	0.0533168	0.25606	1.89925	0.930246	1.97149	0.886938	0.75241
0.914749	2.19934	0.914247	2.20144	0.50827	1.87216	0.866884	0.055999	0.257965	1.9251	0.928277	1.98332	0.887694	0.765783
0.912554	2.2085	0.91205	2.2106	0.510137	1.87562	0.866942	0.0588501	0.259895	1.94981	0.926296	1.99503	0.888463	0.778835
0.910349	2.21772	0.909844	2.21983	0.512006	1.8789	0.867002	0.0617792	0.261849	1.97344	0.924303	2.00657	0.889245	0.791594
0.908136	2.22697	0.907628	2.2291	0.513879	1.88209	0.867065	0.0647775	0.263826	1.99591	0.922298	2.01804	0.89004	0.804112
0.905913	2.23628	0.905403	2.23836	0.515756	1.88508	0.867131	0.0678277	0.265825	2.01737	0.920283	2.02937	0.890847	0.816236
0.903681	2.24555	0.903169	2.24771	0.517635	1.88794	0.8672	0.0710683	0.267845	2.03785	0.918256	2.04051	0.891666	0.828092
0.90144	2.25481	0.900926	2.25695	0.519516	1.89064	0.867272	0.0744297	0.269885	2.05732	0.916218	2.05152	0.892497	0.839671
0.899189	2.26406	0.898673	2.26615	0.521401	1.89318	0.867348	0.0778593	0.271943	2.07585	0.914169	2.06235	0.893339	0.850869
0.89693	2.2733	0.896411	2.27538	0.523288	1.89556	0.867427	0.0814253	0.27402	2.09352	0.91211	2.073	0.894192	0.861826
0.894661	2.28241	0.89414	2.28448	0.525177	1.89781	0.86751	0.085091	0.276114	2.11033	0.91004	2.08349	0.895055	0.872475
0.892383	2.29143	0.89186	2.29349	0.526825	1.89962	0.867597	0.0888693	0.278224	2.12623	0.907959	2.09379	0.89593	0.882766
0.890096	2.30039	0.889572	2.30242	0.528231	1.90112	0.867687	0.092786	0.280349	2.14137	0.905869	2.10391	0.896814	0.892776
0.8878	2.30921	0.887274	2.31125	0.529395	1.9023	0.867782	0.0968064	0.28249	2.15575	0.903768	2.11375	0.897708	0.902484
0.885496	2.31793	0.884968	2.3199	0.530315	1.903	0.86788	0.100947	0.284644	2.1693	0.901658	2.12339	0.898612	0.911846
0.883183	2.32651	0.882653	2.32845	0.530992	1.90367	0.867983	0.105243	0.286811	2.18219	0.899538	2.13286	0.899525	0.920951
0.880861	2.33494	0.880329	2.33688	0.531426	1.90417	0.86809	0.109675	0.288991	2.1944	0.897409	2.14211	0.900446	0.929714
0.878532	2.3432	0.877997	2.34507	0.532049	1.90468	0.868201	0.114205	0.291182	2.20592	0.895271	2.15106	0.901377	0.938141
0.876194	2.35132	0.875658	2.35314	0.532726	1.90518	0.868317	0.118845	0.293385	2.21679	0.893124	2.15978	0.902315	0.94633
0.873848	2.35924	0.87331	2.36104	0.533648	1.90589	0.868438	0.123619	0.295598	2.22699	0.890969	2.1683	0.903262	0.954214
0.871494	2.36703	0.870954	2.36879	0.534815	1.90676	0.868563	0.128573	0.297821	2.2366	0.888805	2.1765	0.904216	0.961749
0.869133	2.37462	0.868591	2.37631	0.536226	1.90774	0.868694	0.13363	0.300054	2.24565	0.886633	2.1845	0.905178	0.968933
0.866764	2.38201	0.866221	2.38365	0.537882	1.90876	0.86883	0.138804	0.302295	2.25408	0.884453	2.19225	0.906146	0.975849
0.864387	2.38925	0.863843	2.39087	0.539784	1.9098	0.868971	0.144211	0.304544	2.26197	0.882266	2.19971	0.907122	0.982487
0.862004	2.39629	0.861458	2.39786	0.541687	1.91066	0.869117	0.149653	0.306801	2.26939	0.880071	2.2069	0.908103	0.988831
0.859614	2.40307	0.859066	2.40463	0.54359	1.9114	0.869269	0.155251	0.309065	2.27621	0.87787	2.21383	0.909091	0.994845
0.857217	2.40971	0.856668	2.41125	0.545494	1.91194	0.869426	0.161073	0.311335	2.28253	0.875661	2.2205	0.910085	1.00055
0.854814	2.41623	0.854263	2.41765	0.547399	1.91234	0.86959	0.166997	0.313611	2.28842	0.873446	2.22682	0.911084	1.00597
0.852404	2.4225	0.851852	2.42386	0.549304	1.91263	0.869759	0.17304	0.315894	2.29379	0.871225	2.23287	0.912089	1.01111
0.849988	2.42854	0.849434	2.42995	0.551209	1.91273	0.869934	0.179232	0.318181	2.29868	0.868998	2.23873	0.913099	1.01591
0.847566	2.43448	0.847011	2.43581	0.553114	1.9126	0.870116	0.185637	0.320473	2.30317	0.866766	2.24422	0.914113	1.02041
0.845138	2.44019	0.844582	2.44146	0.555019	1.91241	0.870304	0.192121	0.322769	2.30719	0.864528	2.24938	0.915131	1.02463
0.842705	2.44573	0.842148	2.44696	0.556924	1.91206	0.870499	0.198763	0.325069	2.3108	0.862285	2.25434	0.916154	1.02858
0.840266	2.45109	0.839708	2.45231	0.558828	1.91145	0.8707	0.205632	0.327372	2.31395	0.860037	2.25897	0.91718	1.03223
0.837822	2.45627	0.837262	2.45748	0.560731	1.91075	0.870908	0.212613	0.329678	2.31669	0.857785	2.2633	0.91821	1.03554
0.835373	2.46133	0.834812	2.46243	0.562634	1.90993	0.871124	0.219727	0.331987	2.3191	0.855528	2.26735	0.919243	1.03861
0.832919	2.46618	0.832357	2.46723	0.564536	1.90891	0.871346	0.227023	0.334298	2.32105	0.853268	2.27104	0.920279	1.04145
0.830461	2.47083	0.829897	2.47189	0.566437	1.9077	0.871576	0.234508	0.336611	2.32263	0.851004	2.27443	0.921318	1.04392
0.827997	2.47538	0.827433	2.47644	0.568336	1.90637	0.871813	0.242112	0.338925	2.32385	0.848737	2.27757	0.922359	1.0461
0.82553	2.47981	0.824964	2.48078	0.570234	1.90487	0.872058	0.249867	0.34124	2.32468	0.846467	2.28038	0.923402	1.04803
0.823057	2.48405	0.822491	2.48494	0.572131	1.90317	0.872278	0.256746	0.343556	2.32518	0.844195	2.28288	0.924446	1.04971
0.820581	2.48813	0.820014	2.48903	0.574025	1.90133	0.87247	0.262748	0.345872	2.3253	0.84192	2.2851	0.925493	1.05109
0.818101	2.49204	0.817533	2.49296	0.575918	1.89932	0.872632	0.267792	0.348188	2.32505	0.839643	2.28695	0.92654	1.05221
0.815617	2.49588	0.815048	2.49674	0.577809	1.89719	0.872763	0.271772	0.350503	2.3245	0.837364	2.28849	0.927589	1.05305
0.813129	2.49956	0.812559	2.50039	0.579698	1.89487	0.87286	0.274799	0.352818	2.32361	0.835084	2.28975	0.928638	1.0536
0.810638	2.50311	0.810067	2.50389	0.581584	1.89237	0.872923	0.276746	0.355132	2.32235	0.832803	2.2907	0.929553	1.05395
0.808143	2.50657	0.807571	2.50734	0.583467	1.88973	0.873014	0.279457	0.357444	2.32076	0.830521	2.29131	0.930333	1.05408
0.805644	2.50985	0.805072	2.5106	0.585348	1.88689	0.873114	0.282432	0.359755	2.31889	0.828238	2.29157	0.930977	1.05403
0.803143	2.51304	0.80257	2.51374	0.587226	1.88391	0.873251	0.286632	0.362064	2.31665	0.825956	2.29158	0.931487	1.05388
0.800638	2.51612	0.800065	2.51682	0.589101	1.88078	0.873428	0.291973	0.36437	2.3141	0.823673	2.29124	0.931862	1.0538
0.798131	2.51908	0.797557	2.51976	0.590973	1.87748	0.873647	0.298474	0.366674	2.31127	0.821392	2.29057	0.932102	1.05369
0.79562	2.52195	0.795045	2.52261	0.592841	1.87401	0.873909	0.306264	0.368974	2.30812	0.81911	2.28958	0.932447	1.05355
0.793107	2.52475	0.792531	2.52536	0.594706	1.87032	0.874219	0.315296	0.371272	2.30468	0.816831	2.28828	0.932822	1.05346
0.790591	2.52741	0.790015	2.52801	0.596567	1.86653	0.874537	0.324492	0.373565	2.30088	0.814552	2.28664	0.933331	1.05312
0.788072	2.52996	0.787496	2.53053	0.598424	1.86255	0.874865	0.3339	0.375855	2.29681	0.812275	2.28466	0.933975	1.05259
0.785551	2.53244	0.784974	2.53297	0.600277	1.8584	0.875203	0.3435	0.378141	2.29248	0.810001	2.28234	0.934754	1.05185
0.783027	2.53482	0.78245	2.53535	0.602126	1.85411	0.875549	0.35324	0.380422	2.28776	0.807729	2.2797	0.935667	1.0509
0.780502	2.53715	0.779923	2.53767	0.603971	1.84963	0.875906	0.363136	0.382698	2.2828	0.80546	2.27675	0.936713	1.04956
0.777973	2.53938	0.777395	2.53988	0.605811	1.845	0.876273	0.373197	0.384969	2.27759	0.803194	2.27346	0.937757	1.04794
0.775443	2.5415	0.774864	2.54196	0.607646	1.84022	0.87665	0.383471	0.387235	2.27208	0.800931	2.26982	0.9388	1.04613
0.77291	2.54357	0.772331	2.54404	0.609476	1.83523	0.877037	0.393894	0.389495	2.26629	0.798672	2.26584	0.939841	1.0441
0.770376	2.54555	0.769796	2.54603	0.611302	1.83009	0.877434	0.404479	0.39175	2.26015	0.796417	2.26151	0.94088	1.04187
0.76784	2.54743	0.767259	2.54785	0.613122	1.82484	0.877842	0.41523	0.393998	2.25379	0.794167	2.25685	0.941917	1.03937
0.765301	2.54929	0.76472	2.54968	0.614937	1.81939	0.878261	0.426153	0.396239	2.24718	0.791921	2.25185	0.942951	1.03669
0.762761	2.55109	0.76218	2.55151	0.616746	1.81372	0.878691	0.437247	0.398474	2.24024	0.789681	2.24654	0.943982	1.03383
0.76022	2.55279	0.759638	2.55319	0.61855	1.80794	0.879132	0.448557	0.400702	2.23304	0.787446	2.24086	0.94501	1.03071
0.757676	2.55445	0.757094	2.5548	0.620348	1.80206	0.879585	0.459975	0.402922	2.22563	0.785217	2.23479	0.946035	1.02742
0.755131	2.55604	0.754548	2.55638	0.62214	1.79592	0.880049	0.471577	0.405135	2.21794	0.782994	2.22836	0.947057	1.02396
0.752584	2.55758	0.752001	2.5579	0.623925	1.78964	0.880524	0.483358	0.407341	2.20993	0.780778	2.22165	0.948075	1.02032
0.750036	2.55902	0.749453	2.55937	0.625705	1.78325	0.881012	0.495271	0.409538	2.20168	0.778569	2.21457	0.949089	1.0165
0.747487	2.56041	0.746903	2.56075	0.627478	1.77671	0.881511	0.50738	0.411726	2.19322	0.776367	2.20707	0.9501	1.01252
0.744936	2.5618	0.744352	2.56212	0.629244	1.76998	0.882022	0.519631	0.413907	2.18453	0.774172	2.19926	0.951106	1.00836
0.742383	2.56312	0.741799	2.5634	0.631004	1.76306	0.882546	0.532083	0.416078	2.17555	0.771986	2.19109	0.952109	1.00402
0.73983	2.56437	0.739245	2.56465	0.632756	1.75605	0.883082	0.544635	0.418241	2.16633	0.769807	2.18257	0.953106	0.999561
0.737275	2.56558	0.73669	2.56586	0.634502	1.7489	0.883631	0.557368	0.420394	2.15687	0.767638	2.17366	0.9541	0.99499
0.734719	2.56677	0.734134	2.56698	0.63624	1.74156	0.884193	0.570277	0.422537	2.14721	0.765477	2.16434	0.955088	0.990278
0.732162	2.56785	0.731577	2.56808	0.637971	1.73408	0.884767	0.583318	0.424671	2.13734	0.763326	2.15472	0.956072	0.985365
0.729604	2.56889	0.729018	2.56916	0.639694	1.72648	0.885355	0.596511	0.426795	2.12721	0.761185	2.14474	0.957051	0.980396
0.727045	2.56994	0.726459	2.57019	0.64141	1.71874	0.885955	0.609867	0.428908	2.11691	0.759054	2.13431	0.958025	0.975311
0.724484	2.57089	0.723898	2.57113	0.643118	1.71088	0.886569	0.623348	0.431012	2.10638	0.756933	2.1236	0.958994	0.970082
0.721923	2.57186	0.721337	2.57206	0.644818	1.70283	0.887197	0.636935	0.433104	2.09561	0.754824	2.11249	0.959958	0.964782
0.719361	2.57275	0.718775	2.57295	0.64651	1.69465	0.887838	0.650748	0.435186	2.08468	0.752725	2.10092	0.960916	0.959401
0.716798	2.57357	0.716212	2.57379	0.648194	1.6864	0.888493	0.664631	0.437257	2.07354	0.750639	2.08905	0.961869	0.953938
0.714234	2.57444	0.713648	2.5746	0.64987	1.67803	0.889162	0.678635	0.439317	2.06225	0.748564	2.07685	0.962816	0.94839
0.71167	2.57522	0.711083	2.57536	0.651537	1.66947	0.889845	0.69283	0.441365	2.0508	0.746501	2.06422	0.963758	0.942756
0.709104	2.57592	0.708517	2.57609	0.653195	1.66081	0.890542	0.70712	0.443402	2.03914	0.744452	2.05119	0.964694	0.937079
0.706538	2.57662	0.705951	2.57678	0.654845	1.6521	0.891254	0.721502	0.445427	2.02733	0.742415	2.03778	0.965625	0.931381
0.703972	2.57732	0.703384	2.57745	0.656486	1.64324	0.89198	0.735972	0.447441	2.01544	0.740392	2.02405	0.96655	0.925585
0.701404	2.57795	0.700817	2.57811	0.658119	1.63422	0.89272	0.750617	0.449442	2.00335	0.738383	2.00992	0.967469	0.919784
0.698836	2.57852	0.698249	2.57865	0.659742	1.62516	0.893475	0.765392	0.451432	1.9911	0.736389	1.99536	0.968382	0.913981
0.696268	2.57913	0.69568	2.5792	0.661356	1.61599	0.894245	0.780233	0.453409	1.97883	0.734408	1.98046	0.969289	0.908132
0.693699	2.57966	0.693111	2.57978	0.662961	1.60673	0.895029	0.795149	0.455373	1.96641	0.732443	1.96521	0.970191	0.902262
0.691129	2.58011	0.690541	2.58026	0.664557	1.59738	0.895829	0.810147	0.457326	1.95387	0.730494	1.94962	0.971087	0.896423
0.688559	2.58059	0.687971	2.5807	0.666143	1.58793	0.896643	0.825272	0.459266	1.94123	0.72856	1.93361	0.971977	0.890558
0.685988	2.58102	0.6854	2.58114	0.66772	1.57844	0.897473	0.840461	0.461193	1.92854	0.726642	1.91719	0.972861	0.884678
0.683417	2.58146	0.682829	2.58149	0.669287	1.56889	0.898317	0.855724	0.463107	1.91579	0.72474	1.90046	0.973739	0.878879
0.680846	2.5818	0.680258	2.58186	0.670845	1.55922	0.899177	0.871069	0.465009	1.90295	0.722856	1.88337	0.974612	0.873076
0.678274	2.58215	0.677686	2.58225	0.672393	1.54948	0.900052	0.886454	0.466898	1.89012	0.720989	1.86594	0.975478	0.867315
0.675702	2.58249	0.675114	2.58252	0.673932	1.53972	0.900943	0.901903	0.468774	1.87725	0.719139	1.84813	0.976339	0.861574
0.67313	2.58274	0.672541	2.58278	0.675461	1.5299	0.901849	0.917427	0.470638	1.86431	0.717307	1.82995	0.977195	0.855887
0.670557	2.58298	0.669969	2.58305	0.67698	1.52005	0.902771	0.932989	0.472488	1.85143	0.715494	1.81142	0.978044	0.850314
0.667984	2.58321	0.667396	2.58324	0.678489	1.51014	0.903708	0.948526	0.474326	1.83854	0.713699	1.79258	0.978888	0.844754
0.665411	2.5834	0.664823	2.58344	0.679988	1.5002	0.90466	0.964137	0.476151	1.82563	0.711923	1.77343	0.979727	0.839245
0.662838	2.58352	0.662249	2.58359	0.681477	1.49025	0.905628	0.979829	0.477963	1.81281	0.710166	1.75394	0.98056	0.833847
0.660265	2.58368	0.659676	2.58371	0.682957	1.48029	0.906612	0.995474	0.479762	1.79999	0.708429	1.73412	0.981388	0.828505
0.657691	2.58381	0.657102	2.58379	0.684426	1.47029	0.907611	1.0111	0.481548	1.78721	0.706712	1.71396	0.982211	0.823277
0.655118	2.58383	0.654529	2.58386	0.685885	1.46026	0.908626	1.02679	0.483322	1.77453	0.705014	1.6935	0.983028	0.81815
0.652544	2.58386	0.651955	2.5839	0.687335	1.45026	0.909657	1.04249	0.485083	1.76196	0.703338	1.67277	0.983841	0.813073
0.649971	2.58393	0.649382	2.5839	0.688774	1.44028	0.910703	1.05813	0.486832	1.74947	0.701682	1.65177	0.984648	0.808152
0.647397	2.5839	0.646808	2.5839	0.690204	1.43026	0.911765	1.0738	0.488568	1.73708	0.700048	1.63047	0.98545	0.803308
0.644823	2.58382	0.644234	2.58381	0.691624	1.42031	0.912842	1.08943	0.490292	1.72477	0.698434	1.60894	0.986248	0.798589
0.64225	2.58376	0.641661	2.58372	0.693033	1.4104	0.913935	1.10496	0.492004	1.71264	0.696842	1.58709	0.987041	0.79402
0.639676	2.58364	0.639088	2.58363	0.694433	1.40046	0.915043	1.12052	0.493704	1.70063	0.695273	1.56499	0.98783	0.789569
0.637103	2.58347	0.636514	2.58345	0.695823	1.39059	0.916167	1.13602	0.495392	1.68874	0.693725	1.54271	0.988614	0.78522
0.63453	2.58333	0.633941	2.58326	0.697203	1.38076	0.917306	1.15148	0.497068	1.67703	0.6922	1.52017	0.989394	0.781009
0.631957	2.58311	0.631368	2.58306	0.698574	1.37095	0.918461	1.16688	0.498733	1.66554	0.690697	1.49743	0.99017	0.776997
0.629384	2.58286	0.628796	2.58283	0.699934	1.36124	0.919631	1.18216	0.500386	1.65421	0.689217	1.47449	0.990942	0.773042
0.626812	2.58262	0.626223	2.58255	0.701285	1.35157	0.920816	1.19743	0.502028	1.64304	0.687759	1.45132	0.99171	0.769287
0.62424	2.58232	0.623651	2.58224	0.702627	1.34197	0.922016	1.2126	0.503659	1.63208	0.686325	1.42803	0.992474	0.765677
0.621668	2.58197	0.621079	2.58188	0.703959	1.33249	0.923231	1.22768	0.505279	1.62131	0.684915	1.40458	0.993235	0.762225
0.619096	2.58162	0.618508	2.5815	0.705281	1.32303	0.924461	1.24268	0.506889	1.61082	0.683527	1.38092	0.993993	0.758939
0.616525	2.58117	0.615937	2.5811	0.706594	1.31366	0.925707	1.25754	0.508488	1.60059	0.682164	1.35716	0.994747	0.755736
0.613954	2.5807	0.613366	2.58064	0.707898	1.30443	0.926967	1.27229	0.510077	1.59053	0.680824	1.33331	0.995498	0.752792
