Sym0		Sym1		Sym2		Sym3		Asym1		Asym2	
390  Points		390  Points		367  Points		200  Points		401  Points		295  Points	
Freq (MHz)	Vph (m/ms)	Freq (MHz)	Vph (m/ms)	Freq (MHz)	Vph (m/ms)	Freq (MHz)	Vph (m/ms)	Freq (MHz)	Vph (m/ms)	Freq (MHz)	Vph (m/ms)
1.00021	2.61682	1.0012	2.61652	0.486076	639.758	0.866026	1362.57	0.216507	1551.52	0.649519	922.241
0.997863	2.61751	0.998864	2.61721	0.486195	276.907	0.86603	530.784	0.216555	190.701	0.649519	382.001
0.995513	2.61818	0.996517	2.6179	0.486407	176.758	0.866038	329.589	0.216676	101.65	0.649518	240.889
0.993156	2.61885	0.994163	2.61856	0.486711	129.864	0.866049	238.999	0.216871	69.3407	0.649516	175.908
0.990793	2.61949	0.991803	2.61922	0.487104	102.681	0.866064	187.473	0.21714	52.6573	0.649515	138.537
0.988424	2.62013	0.989436	2.61986	0.487582	84.9461	0.866082	154.225	0.217481	42.4795	0.649513	114.262
0.986048	2.62075	0.987063	2.62049	0.488143	72.4686	0.866104	130.995	0.217894	35.6287	0.649511	97.226
0.983665	2.62136	0.984683	2.6211	0.488782	63.2159	0.86613	113.848	0.218379	30.7069	0.649508	84.6105
0.981277	2.62195	0.982297	2.6217	0.489496	56.0835	0.866159	100.672	0.218934	27.003	0.649506	74.8928
0.978883	2.62254	0.979906	2.62229	0.490279	50.4195	0.866192	90.2303	0.219557	24.1172	0.649503	67.1772
0.976483	2.6231	0.977508	2.62286	0.491128	45.8141	0.866229	81.7519	0.220249	21.8073	0.649499	60.9028
0.974077	2.62366	0.975105	2.62343	0.492039	41.997	0.866269	74.7309	0.221008	19.9182	0.649496	55.7003
0.971666	2.62421	0.972696	2.62398	0.493007	38.7826	0.866313	68.8212	0.221832	18.3456	0.649493	51.3167
0.969249	2.62474	0.970281	2.62451	0.494029	36.0392	0.86636	63.7785	0.222719	17.0173	0.649489	47.5726
0.966826	2.62526	0.967861	2.62504	0.495101	33.6709	0.866411	59.425	0.223669	15.8812	0.649486	44.3377
0.964399	2.62577	0.965436	2.62556	0.49622	31.6061	0.866466	55.6285	0.22468	14.8993	0.649482	41.5147
0.961966	2.62627	0.963005	2.62606	0.497381	29.7902	0.866525	52.2886	0.225749	14.0427	0.649479	39.0296
0.959529	2.62676	0.96057	2.62655	0.498583	28.181	0.866587	49.3276	0.226876	13.2894	0.649476	36.8253
0.957086	2.62724	0.95813	2.62703	0.499823	26.7454	0.866654	46.6846	0.228059	12.6223	0.649473	34.8566
0.954639	2.6277	0.955685	2.62751	0.501097	25.4568	0.866724	44.311	0.229295	12.0277	0.649471	33.0877
0.952188	2.62816	0.953235	2.62797	0.502404	24.2939	0.866798	42.1675	0.230584	11.4947	0.649468	31.4897
0.949732	2.62861	0.950781	2.62842	0.503741	23.2393	0.866876	40.2224	0.231748	11.0736	0.649467	30.039
0.947272	2.62905	0.948322	2.62886	0.505107	22.2786	0.866957	38.4492	0.23277	10.7426	0.649466	28.7161
0.944807	2.62948	0.94586	2.62929	0.506499	21.3999	0.867043	36.8263	0.233635	10.4864	0.649465	27.5048
0.942338	2.62989	0.943393	2.62972	0.507916	20.5931	0.867133	35.3353	0.234331	10.2942	0.649465	26.3915
0.939866	2.63031	0.940922	2.63013	0.509356	19.8499	0.867226	33.9607	0.23485	10.1582	0.649467	25.365
0.937389	2.63071	0.938447	2.63054	0.510818	19.1631	0.867324	32.6895	0.235186	10.0735	0.649469	24.4153
0.934909	2.6311	0.935969	2.63094	0.512301	18.5264	0.867426	31.5104	0.235672	9.9548	0.649472	23.5342
0.932426	2.63149	0.933486	2.63133	0.513803	17.9348	0.867532	30.4138	0.236205	9.82964	0.649476	22.7145
0.929939	2.63187	0.931001	2.63171	0.515323	17.3835	0.867642	29.3914	0.23694	9.66562	0.649481	21.9501
0.927448	2.63224	0.928512	2.63208	0.516861	16.8685	0.867756	28.4358	0.237883	9.4678	0.649488	21.2355
0.924954	2.6326	0.926019	2.63245	0.518414	16.3866	0.867875	27.5408	0.239046	9.2419	0.649496	20.566
0.922457	2.63296	0.923524	2.63281	0.519984	15.9345	0.867998	26.7008	0.240437	8.9939	0.649506	19.9375
0.919957	2.63331	0.921025	2.63316	0.521567	15.5096	0.868125	25.9108	0.242071	8.72978	0.649517	19.3464
0.917454	2.63366	0.918523	2.63351	0.523165	15.1096	0.868256	25.1666	0.243743	8.48528	0.649531	18.7893
0.914948	2.63399	0.916018	2.63385	0.524775	14.7323	0.868392	24.4642	0.245452	8.2584	0.649546	18.2636
0.912439	2.63432	0.913511	2.63418	0.526398	14.3759	0.868533	23.8003	0.247195	8.04737	0.649563	17.7665
0.909928	2.63465	0.911	2.63451	0.528033	14.0387	0.868678	23.1719	0.248971	7.85065	0.649583	17.2958
0.907414	2.63497	0.908487	2.63483	0.529679	13.7192	0.868827	22.576	0.25078	7.66689	0.649604	16.8496
0.904897	2.63528	0.905972	2.63515	0.531336	13.416	0.868981	22.0104	0.25262	7.4949	0.649629	16.4258
0.902378	2.63559	0.903454	2.63546	0.533003	13.1279	0.86914	21.4727	0.254488	7.33363	0.649655	16.023
0.899857	2.6359	0.900933	2.63577	0.53468	12.8539	0.869304	20.9609	0.256386	7.18215	0.649685	15.6395
0.897333	2.63619	0.898411	2.63607	0.536365	12.5929	0.869473	20.4733	0.25831	7.03963	0.649717	15.2741
0.894807	2.63649	0.895886	2.63636	0.53806	12.344	0.869646	20.0081	0.26026	6.90533	0.649753	14.9254
0.892279	2.63678	0.893358	2.63666	0.539763	12.1064	0.869824	19.5639	0.262234	6.77859	0.649791	14.5924
0.889749	2.63706	0.890829	2.63694	0.541474	11.8794	0.870008	19.1393	0.264232	6.6588	0.649833	14.2741
0.887216	2.63734	0.888298	2.63722	0.543193	11.6623	0.870196	18.733	0.266253	6.54543	0.649879	13.9695
0.884682	2.63762	0.885764	2.6375	0.544919	11.4544	0.870389	18.3438	0.268296	6.438	0.649928	13.6777
0.882146	2.63789	0.883229	2.63778	0.546428	11.2803	0.870588	17.9707	0.270359	6.33607	0.649981	13.398
0.879608	2.63816	0.880692	2.63805	0.547719	11.1369	0.870792	17.6128	0.272441	6.23924	0.650038	13.1296
0.877069	2.63843	0.878153	2.63831	0.54879	11.0215	0.871001	17.2692	0.274543	6.14715	0.650099	12.8718
0.874527	2.63869	0.875612	2.63858	0.549637	10.9323	0.871216	16.9389	0.276662	6.05947	0.650164	12.6242
0.871984	2.63894	0.87307	2.63883	0.550262	10.8678	0.871436	16.6213	0.278798	5.97589	0.650233	12.386
0.86944	2.6392	0.870526	2.63909	0.550662	10.8271	0.871662	16.3157	0.280951	5.89616	0.650307	12.1567
0.866893	2.63945	0.867981	2.63934	0.551237	10.7691	0.871893	16.0213	0.283119	5.82001	0.650386	11.936
0.864346	2.6397	0.865433	2.63959	0.551863	10.7069	0.87213	15.7376	0.285303	5.74721	0.65047	11.7232
0.861797	2.63994	0.862885	2.63984	0.552716	10.6237	0.872373	15.4641	0.2875	5.67755	0.650548	11.544
0.859246	2.64019	0.860335	2.64008	0.553797	10.5208	0.872622	15.2001	0.28971	5.61084	0.650617	11.3956
0.856694	2.64043	0.857784	2.64032	0.555106	10.3995	0.872876	14.9452	0.291933	5.5469	0.650676	11.2758
0.854141	2.64066	0.855231	2.64056	0.556646	10.2615	0.873137	14.699	0.294168	5.48555	0.650724	11.1829
0.851587	2.6409	0.852677	2.6408	0.558417	10.1085	0.873404	14.461	0.296415	5.42666	0.650761	11.1156
0.849031	2.64113	0.850122	2.64103	0.560193	9.96106	0.873677	14.2309	0.298673	5.37007	0.650784	11.0729
0.846474	2.64136	0.847566	2.64126	0.561973	9.81882	0.873956	14.0082	0.300941	5.31565	0.650819	11.0122
0.843916	2.64159	0.845008	2.64149	0.563758	9.68151	0.874242	13.7925	0.303218	5.26328	0.650857	10.947
0.841357	2.64181	0.84245	2.64172	0.565547	9.5489	0.874534	13.5837	0.305505	5.21285	0.650911	10.8595
0.838797	2.64204	0.83989	2.64194	0.567339	9.42073	0.874832	13.3813	0.3078	5.16425	0.65098	10.7509
0.836236	2.64226	0.837329	2.64217	0.569135	9.29678	0.875137	13.1851	0.310104	5.11738	0.651067	10.6226
0.833673	2.64248	0.834767	2.64239	0.570933	9.17686	0.875449	12.9948	0.312416	5.07216	0.651173	10.4759
0.83111	2.6427	0.832205	2.64261	0.572735	9.06077	0.875768	12.8101	0.314734	5.02849	0.651301	10.3127
0.828546	2.64292	0.829641	2.64282	0.57454	8.94832	0.876094	12.6309	0.31706	4.98629	0.651435	10.1547
0.825981	2.64313	0.827076	2.64304	0.576348	8.83935	0.876427	12.4568	0.319392	4.9455	0.651576	10.0016
0.823415	2.64335	0.824511	2.64326	0.578157	8.73369	0.876766	12.2877	0.321729	4.90603	0.651724	9.85325
0.820849	2.64356	0.821945	2.64347	0.57997	8.6312	0.877113	12.1233	0.324073	4.86783	0.651879	9.70938
0.818281	2.64377	0.819377	2.64368	0.581784	8.53173	0.877422	11.9838	0.326421	4.83083	0.652041	9.56983
0.815713	2.64398	0.81681	2.64389	0.583599	8.43515	0.877689	11.8675	0.328774	4.79498	0.652211	9.4344
0.813144	2.64419	0.814241	2.6441	0.585417	8.34133	0.877913	11.7732	0.331132	4.76021	0.652388	9.30293
0.810574	2.6444	0.811672	2.64431	0.587236	8.25016	0.878093	11.6997	0.333493	4.72648	0.652573	9.17526
0.808004	2.64461	0.809102	2.64452	0.589056	8.16153	0.878226	11.6462	0.335859	4.69375	0.652766	9.05122
0.805433	2.64482	0.806531	2.64473	0.590877	8.07532	0.878311	11.6123	0.338227	4.66195	0.652968	8.93067
0.802861	2.64502	0.803959	2.64494	0.592699	7.99144	0.878435	11.5639	0.340598	4.63106	0.653177	8.81347
0.800289	2.64523	0.801387	2.64514	0.594522	7.90979	0.87857	11.5118	0.342972	4.60103	0.653396	8.6995
0.797716	2.64543	0.798815	2.64535	0.596345	7.83028	0.878756	11.4417	0.345349	4.57182	0.653623	8.58863
0.795143	2.64564	0.796242	2.64555	0.598168	7.75283	0.878994	11.3543	0.347727	4.54339	0.653859	8.48074
0.792569	2.64584	0.793668	2.64576	0.599992	7.67736	0.879285	11.2506	0.350107	4.51572	0.654105	8.37572
0.789994	2.64605	0.791094	2.64596	0.601815	7.60378	0.879632	11.1314	0.352488	4.48877	0.654359	8.27346
0.78742	2.64625	0.788519	2.64616	0.603639	7.53203	0.880038	10.9979	0.35487	4.4625	0.654624	8.17387
0.784844	2.64645	0.785944	2.64637	0.605462	7.46204	0.880453	10.8678	0.357253	4.4369	0.654898	8.07685
0.782268	2.64666	0.783368	2.64657	0.607284	7.39374	0.880875	10.741	0.359637	4.41192	0.655183	7.9823
0.779692	2.64686	0.780792	2.64677	0.609106	7.32706	0.881305	10.6173	0.36202	4.38756	0.655477	7.89014
0.777115	2.64706	0.778215	2.64698	0.610927	7.26196	0.881745	10.4966	0.364404	4.36377	0.655782	7.80029
0.774538	2.64727	0.775639	2.64718	0.612746	7.19836	0.882192	10.3789	0.366787	4.34053	0.656098	7.71267
0.771961	2.64747	0.773061	2.64738	0.614565	7.13623	0.882649	10.264	0.36917	4.31784	0.656424	7.62721
0.769383	2.64767	0.770484	2.64759	0.616382	7.0755	0.883114	10.1518	0.371551	4.29565	0.656762	7.54383
0.766805	2.64788	0.767906	2.64779	0.618198	7.01612	0.883588	10.0423	0.373932	4.27395	0.657111	7.46246
0.764227	2.64808	0.765327	2.648	0.620011	6.95805	0.884071	9.93529	0.376311	4.25273	0.657472	7.38304
0.761648	2.64829	0.762749	2.6482	0.621823	6.90124	0.884563	9.83078	0.378688	4.23196	0.657844	7.30551
0.759069	2.64849	0.76017	2.64841	0.623633	6.84565	0.885064	9.72866	0.381064	4.21163	0.658228	7.22981
0.75649	2.6487	0.757591	2.64861	0.625441	6.79125	0.885575	9.62885	0.383437	4.19172	0.658624	7.15587
0.753911	2.64891	0.755012	2.64882	0.627246	6.73798	0.886095	9.53129	0.385808	4.1722	0.659033	7.08365
0.751331	2.64911	0.752432	2.64902	0.629049	6.68581	0.886625	9.43589	0.388176	4.15308	0.659454	7.0131
0.748751	2.64932	0.749853	2.64923	0.630849	6.6347	0.887164	9.3426	0.390541	4.13433	0.659888	6.94416
0.746172	2.64953	0.747273	2.64944	0.632646	6.58463	0.887714	9.25135	0.392903	4.11594	0.660335	6.87678
0.743592	2.64974	0.744693	2.64965	0.634441	6.53555	0.888273	9.16207	0.395262	4.09789	0.660795	6.81093
0.741011	2.64995	0.742113	2.64986	0.636232	6.48744	0.888842	9.07471	0.397617	4.08017	0.661268	6.74655
0.738431	2.65016	0.739533	2.65007	0.63802	6.44026	0.889421	8.98922	0.399968	4.06277	0.661756	6.6836
0.735851	2.65038	0.736952	2.65029	0.639804	6.39399	0.890011	8.90553	0.402315	4.04568	0.662257	6.62205
0.73327	2.65059	0.734372	2.6505	0.641585	6.34859	0.890611	8.82359	0.404658	4.02889	0.662772	6.56184
0.73069	2.65081	0.731792	2.65072	0.643362	6.30404	0.891222	8.74336	0.406997	4.01238	0.663301	6.50296
0.72811	2.65103	0.729211	2.65093	0.645135	6.26032	0.891843	8.66479	0.40933	3.99615	0.663845	6.44535
0.725529	2.65125	0.726631	2.65115	0.646904	6.21739	0.892475	8.58783	0.411659	3.98018	0.664403	6.38899
0.722949	2.65147	0.72405	2.65137	0.648669	6.17524	0.893118	8.51243	0.413982	3.96446	0.664977	6.33384
0.720368	2.65169	0.72147	2.65159	0.650429	6.13384	0.893771	8.43855	0.4163	3.94899	0.665565	6.27987
0.717788	2.65191	0.718889	2.65182	0.652185	6.09317	0.894436	8.36615	0.418612	3.93376	0.666169	6.22704
0.715208	2.65214	0.716309	2.65204	0.653937	6.0532	0.895112	8.29519	0.420919	3.91876	0.666789	6.17534
0.712627	2.65237	0.713729	2.65227	0.655683	6.01392	0.895799	8.22563	0.423219	3.90397	0.667424	6.12472
0.710047	2.6526	0.711149	2.6525	0.657425	5.97531	0.896498	8.15744	0.425514	3.8894	0.668075	6.07517
0.707467	2.65283	0.708569	2.65273	0.659162	5.93734	0.897208	8.09058	0.427802	3.87504	0.668742	6.02665
0.704887	2.65307	0.705989	2.65297	0.660893	5.90001	0.89793	8.02501	0.430083	3.86086	0.669426	5.97914
0.702308	2.65331	0.703409	2.6532	0.66262	5.86328	0.898663	7.9607	0.432357	3.84688	0.670126	5.93262
0.699728	2.65354	0.700829	2.65344	0.66434	5.82715	0.899409	7.89762	0.434624	3.83309	0.670843	5.88705
0.697149	2.65379	0.69825	2.65368	0.666056	5.7916	0.900166	7.83574	0.436884	3.81947	0.671576	5.84242
0.69457	2.65403	0.695671	2.65393	0.667765	5.75661	0.900935	7.77503	0.439136	3.80602	0.672327	5.79871
0.691991	2.65428	0.693092	2.65418	0.669469	5.72217	0.901717	7.71545	0.441381	3.79273	0.673095	5.75589
0.689413	2.65453	0.690513	2.65442	0.671167	5.68825	0.90251	7.65699	0.443618	3.77961	0.673881	5.71394
0.686835	2.65479	0.687935	2.65468	0.672859	5.65486	0.903316	7.5996	0.445847	3.76663	0.674684	5.67284
0.684257	2.65504	0.685357	2.65493	0.674545	5.62196	0.904135	7.54328	0.448068	3.75381	0.675506	5.63258
0.681679	2.65531	0.682779	2.65519	0.676224	5.58956	0.904965	7.48799	0.450281	3.74113	0.676345	5.59312
0.679102	2.65557	0.680202	2.65546	0.677897	5.55763	0.905809	7.4337	0.452485	3.72858	0.677202	5.55446
0.676525	2.65584	0.677625	2.65572	0.679564	5.52617	0.906665	7.3804	0.45468	3.71617	0.678078	5.51658
0.673949	2.65611	0.675049	2.65599	0.681224	5.49516	0.907534	7.32806	0.456866	3.70389	0.678972	5.47945
0.671373	2.65638	0.672473	2.65627	0.682877	5.46459	0.908415	7.27665	0.459044	3.69173	0.679885	5.44307
0.668798	2.65666	0.669897	2.65654	0.684524	5.43445	0.90931	7.22616	0.461212	3.6797	0.680817	5.40741
0.666223	2.65695	0.667322	2.65683	0.686163	5.40473	0.910217	7.17657	0.463371	3.66777	0.681768	5.37246
0.663648	2.65724	0.664747	2.65711	0.687796	5.37542	0.911138	7.12785	0.46552	3.65596	0.682737	5.3382
0.661075	2.65753	0.662173	2.6574	0.689422	5.34651	0.912071	7.07999	0.46766	3.64426	0.683727	5.30462
0.658501	2.65783	0.6596	2.6577	0.69104	5.31798	0.913018	7.03296	0.469791	3.63267	0.684735	5.27171
0.655929	2.65813	0.657027	2.658	0.692652	5.28984	0.913978	6.98675	0.471911	3.62117	0.685763	5.23945
0.653357	2.65844	0.654455	2.65831	0.694256	5.26206	0.914952	6.94134	0.474021	3.60978	0.686811	5.20782
0.650785	2.65875	0.651883	2.65862	0.695853	5.23465	0.915938	6.89671	0.476121	3.59848	0.687878	5.17681
0.648215	2.65907	0.649312	2.65893	0.697442	5.20758	0.916938	6.85285	0.478211	3.58727	0.688965	5.14642
0.645645	2.65939	0.646742	2.65925	0.699024	5.18087	0.917951	6.80973	0.480291	3.57615	0.690072	5.11662
0.643076	2.65972	0.644173	2.65958	0.700598	5.15448	0.918978	6.76734	0.48236	3.56512	0.691199	5.0874
0.640508	2.66006	0.641604	2.65991	0.702165	5.12843	0.920018	6.72567	0.484419	3.55417	0.692346	5.05876
0.63794	2.6604	0.639036	2.66025	0.703724	5.1027	0.921072	6.6847	0.486467	3.5433	0.693513	5.03068
0.635374	2.66075	0.636469	2.6606	0.705276	5.07728	0.922139	6.64442	0.488505	3.53252	0.6947	5.00314
0.632808	2.66111	0.633903	2.66095	0.70682	5.05217	0.92322	6.6048	0.490532	3.52181	0.695908	4.97614
0.630244	2.66147	0.631339	2.66131	0.708356	5.02735	0.924315	6.56585	0.492548	3.51118	0.697135	4.94967
0.62768	2.66184	0.628775	2.66168	0.709884	5.00283	0.925422	6.52753	0.494554	3.50062	0.698383	4.92371
0.625118	2.66222	0.626212	2.66206	0.711404	4.9786	0.926544	6.48985	0.496548	3.49013	0.699652	4.89826
0.622557	2.6626	0.62365	2.66244	0.712917	4.95465	0.927679	6.45278	0.498532	3.47971	0.700941	4.8733
0.619996	2.663	0.621089	2.66283	0.714422	4.93098	0.928828	6.41632	0.500504	3.46936	0.70225	4.84882
0.617438	2.6634	0.61853	2.66323	0.715919	4.90757	0.92999	6.38045	0.502466	3.45908	0.703579	4.82482
0.61488	2.66381	0.615972	2.66364	0.717408	4.88443	0.931166	6.34515	0.504417	3.44886	0.704929	4.80128
0.612324	2.66424	0.613415	2.66405	0.718889	4.86155	0.932355	6.31043	0.506357	3.43871	0.706299	4.7782
0.609769	2.66467	0.610859	2.66448	0.720363	4.83892	0.933558	6.27626	0.508286	3.42861	0.70769	4.75556
0.607215	2.66511	0.608305	2.66492	0.721828	4.81654	0.934774	6.24263	0.510205	3.41859	0.709101	4.73336
0.604663	2.66556	0.605752	2.66537	0.723286	4.7944	0.936004	6.20954	0.512112	3.40862	0.710531	4.71159
0.602113	2.66602	0.603201	2.66582	0.724736	4.7725	0.937247	6.17697	0.514008	3.39871	0.711982	4.69023
0.599564	2.6665	0.600652	2.66629	0.726178	4.75084	0.938503	6.14491	0.515894	3.38886	0.713453	4.66929
0.597017	2.66698	0.598104	2.66678	0.727612	4.7294	0.939773	6.11336	0.517769	3.37907	0.714944	4.64874
0.594472	2.66748	0.595558	2.66727	0.729039	4.70819	0.941056	6.0823	0.519634	3.36933	0.716455	4.62859
0.591928	2.66799	0.593014	2.66777	0.730457	4.68721	0.942352	6.05172	0.521487	3.35966	0.717986	4.60882
0.589387	2.66852	0.590472	2.66829	0.731869	4.66644	0.943661	6.02161	0.523331	3.35003	0.719536	4.58943
0.586848	2.66906	0.587931	2.66883	0.733272	4.64588	0.944984	5.99196	0.525164	3.34047	0.721106	4.5704
0.58431	2.66961	0.585393	2.66937	0.734668	4.62554	0.946319	5.96277	0.526986	3.33096	0.722695	4.55174
0.581775	2.67018	0.582857	2.66994	0.736057	4.6054	0.947667	5.93402	0.528798	3.3215	0.724303	4.53343
0.579243	2.67077	0.580324	2.67052	0.737438	4.58546	0.949028	5.90571	0.530601	3.3121	0.725931	4.51547
0.576712	2.67137	0.577792	2.67111	0.738811	4.56573	0.950402	5.87783	0.532393	3.30276	0.727577	4.49784
0.574185	2.67199	0.575263	2.67172	0.740178	4.54619	0.951788	5.85037	0.534176	3.29346	0.729242	4.48055
0.57166	2.67263	0.572737	2.67235	0.741537	4.52684	0.953187	5.82331	0.535948	3.28423	0.730926	4.46358
0.569137	2.67328	0.570214	2.673	0.742889	4.50769	0.954598	5.79666	0.537711	3.27504	0.732628	4.44692
0.566618	2.67396	0.567693	2.67367	0.744234	4.48872	0.956022	5.77041	0.539465	3.26591	0.734348	4.43058
0.564102	2.67465	0.565176	2.67435	0.745572	4.46994	0.957458	5.74454	0.54121	3.25683	0.736087	4.41454
0.561589	2.67537	0.562661	2.67506	0.746902	4.45133	0.958906	5.71905	0.542945	3.24781	0.737843	4.3988
0.559079	2.67612	0.56015	2.6758	0.748227	4.43291	0.960366	5.69393	0.544672	3.23884	0.739617	4.38334
0.556573	2.67688	0.557642	2.67655	0.749544	4.41466	0.961838	5.66918	0.54639	3.22993	0.741408	4.36817
0.55407	2.67767	0.555138	2.67733	0.750855	4.39659	0.963321	5.64478	0.548099	3.22106	0.743216	4.35328
0.551571	2.67849	0.552637	2.67814	0.752159	4.37869	0.964816	5.62074	0.5498	3.21226	0.745042	4.33866
0.549076	2.67933	0.550141	2.67897	0.753456	4.36096	0.966323	5.59704	0.551492	3.2035	0.746884	4.32431
0.546586	2.68021	0.547648	2.67983	0.754748	4.34339	0.967841	5.57368	0.553177	3.19481	0.748742	4.31021
0.544099	2.68111	0.54516	2.68072	0.756033	4.32599	0.96937	5.55064	0.554854	3.18616	0.750616	4.29636
0.541618	2.68204	0.542677	2.68164	0.757312	4.30876	0.97091	5.52794	0.556523	3.17757	0.752507	4.28277
0.539141	2.68301	0.540198	2.6826	0.758585	4.29168	0.972461	5.50555	0.558185	3.16904	0.754413	4.26942
0.536669	2.68402	0.537724	2.68358	0.759852	4.27476	0.974023	5.48347	0.55984	3.16056	0.756334	4.2563
0.534203	2.68506	0.535255	2.68461	0.761113	4.258	0.975595	5.46169	0.561487	3.15214	0.758271	4.24341
0.531742	2.68614	0.532792	2.68567	0.762369	4.24139	0.977178	5.44022	0.563128	3.14377	0.760223	4.23075
0.529288	2.68726	0.530335	2.68677	0.763619	4.22493	0.978771	5.41904	0.564763	3.13546	0.762189	4.21831
0.526839	2.68842	0.527883	2.68792	0.764864	4.20862	0.980375	5.39815	0.566391	3.12721	0.764169	4.20608
0.524397	2.68963	0.525439	2.68911	0.766104	4.19247	0.981988	5.37754	0.568013	3.11901	0.766163	4.19407
0.521961	2.69088	0.523	2.69034	0.767338	4.17646	0.983611	5.35721	0.569629	3.11087	0.768171	4.18226
0.519533	2.69219	0.520569	2.69163	0.768567	4.16059	0.985243	5.33715	0.571239	3.10279	0.770193	4.17065
0.517113	2.69355	0.518145	2.69296	0.769792	4.14487	0.986886	5.31735	0.572844	3.09476	0.772227	4.15923
0.5147	2.69496	0.515729	2.69435	0.771011	4.1293	0.988537	5.29782	0.574444	3.0868	0.774275	4.14801
0.512295	2.69644	0.513321	2.6958	0.772226	4.11386	0.990198	5.27854	0.576039	3.07889	0.776335	4.13697
0.5099	2.69797	0.510921	2.69731	0.773437	4.09856	0.991867	5.25951	0.577629	3.07104	0.778407	4.12611
