Sym0		Sym1		Sym2		Sym3		Asym1		Asym2		Asym3	
420  Points		420  Points		380  Points		240  Points		401  Points		381  Points		251  Points	
Freq (MHz)	Vph (m/ms)	Freq (MHz)	Vph (m/ms)	Freq (MHz)	Vph (m/ms)	Freq (MHz)	Vph (m/ms)	Freq (MHz)	Vph (m/ms)	Freq (MHz)	Vph (m/ms)	Freq (MHz)	Vph (m/ms)
1.00185	2.42927	1.00158	2.42925	0.433013	5371.83	0.866025	2722.4	0.216523	320.918	1.00031	2.67954	0.698268	947.565
0.999343	2.42905	0.999074	2.42903	0.433058	402.234	0.866013	658.999	0.216608	129.649	0.99882	2.68272	0.698386	403.008
0.996837	2.42884	0.996569	2.42882	0.433181	208.998	0.865986	374.86	0.216764	81.2842	0.997346	2.68594	0.698597	255.995
0.994335	2.42864	0.994068	2.42862	0.43338	141.227	0.865944	261.917	0.216992	59.2427	0.995883	2.68922	0.698901	187.626
0.991839	2.42845	0.991572	2.42843	0.433656	106.688	0.865888	201.266	0.217291	46.6411	0.994432	2.69254	0.699294	148.124
0.989348	2.42827	0.989081	2.42825	0.434006	85.7596	0.865817	163.416	0.217661	38.4912	0.992992	2.69591	0.699772	122.401
0.986862	2.4281	0.986596	2.42809	0.434429	71.7265	0.865732	137.543	0.218099	32.7928	0.991563	2.69933	0.700331	104.324
0.984381	2.42795	0.984115	2.42793	0.434924	61.6671	0.865633	118.738	0.218607	28.5878	0.990144	2.7028	0.700968	90.9276
0.981906	2.42781	0.981641	2.42779	0.435489	54.1061	0.865519	104.452	0.219182	25.3598	0.988736	2.70631	0.701677	80.6052
0.979436	2.42768	0.979171	2.42767	0.436121	48.2177	0.865391	93.23	0.219824	22.8059	0.987337	2.70987	0.702453	72.4095
0.976971	2.42757	0.976708	2.42755	0.436818	43.5041	0.86525	84.1818	0.22053	20.7364	0.985949	2.71348	0.703292	65.7458
0.974513	2.42746	0.97425	2.42745	0.437577	39.6468	0.865095	76.7311	0.221301	19.0269	0.98457	2.71713	0.70419	60.2224
0.972061	2.42738	0.971798	2.42737	0.438396	36.4331	0.864926	70.4888	0.222134	17.592	0.9832	2.72083	0.705143	55.5703
0.969614	2.42731	0.969352	2.4273	0.439273	33.7152	0.864744	65.1829	0.223028	16.3714	0.981839	2.72458	0.706145	51.5991
0.967174	2.42725	0.966912	2.42724	0.440204	31.3873	0.864549	60.6172	0.223981	15.3212	0.980487	2.72836	0.707193	48.1698
0.96474	2.42721	0.964479	2.4272	0.441188	29.3715	0.864342	56.6467	0.224992	14.4087	0.979144	2.7322	0.708284	45.1791
0.962312	2.42718	0.962052	2.42718	0.442222	27.6095	0.864122	53.162	0.226059	13.609	0.977809	2.73608	0.709414	42.548
0.959891	2.42717	0.959632	2.42717	0.443303	26.0567	0.86389	50.0791	0.227181	12.9028	0.976483	2.74	0.710581	40.2155
0.957476	2.42718	0.957218	2.42718	0.444429	24.6781	0.863646	47.332	0.228355	12.2751	0.975165	2.74398	0.711781	38.1338
0.955069	2.42721	0.954811	2.42721	0.445597	23.4462	0.863391	44.8688	0.22958	11.7138	0.973855	2.74799	0.713012	36.2646
0.952668	2.42725	0.952411	2.42725	0.446805	22.3391	0.863124	42.6475	0.230854	11.2091	0.972552	2.75205	0.714271	34.577
0.950274	2.42731	0.950018	2.42732	0.448052	21.3388	0.862847	40.634	0.232176	10.7533	0.971257	2.75615	0.715557	33.0459
0.947888	2.42739	0.947632	2.4274	0.449335	20.4307	0.862559	38.8005	0.233543	10.3396	0.96997	2.7603	0.716867	31.6505
0.945508	2.42749	0.945254	2.4275	0.450652	19.6028	0.862261	37.1238	0.234954	9.96276	0.96869	2.7645	0.718199	30.3737
0.943137	2.42761	0.942883	2.42762	0.452001	18.845	0.861954	35.5846	0.236408	9.61818	0.967417	2.76873	0.719553	29.2009
0.940772	2.42775	0.940519	2.42776	0.45338	18.1488	0.861637	34.1666	0.237902	9.30202	0.966152	2.77302	0.720926	28.12
0.938416	2.4279	0.938164	2.42792	0.454788	17.5072	0.861311	32.856	0.239435	9.01103	0.964893	2.77734	0.722318	27.1206
0.936067	2.42808	0.935816	2.42811	0.456223	16.9139	0.860977	31.641	0.241005	8.74243	0.963642	2.78172	0.723726	26.1939
0.933726	2.42829	0.933476	2.42831	0.457684	16.3638	0.860634	30.5116	0.242612	8.4938	0.962397	2.78613	0.72515	25.3322
0.931394	2.42851	0.931144	2.42854	0.459169	15.8524	0.860284	29.459	0.244252	8.26309	0.961158	2.7906	0.726588	24.529
0.929069	2.42876	0.92882	2.42878	0.460677	15.3757	0.859926	28.4755	0.245925	8.04849	0.959927	2.7951	0.728041	23.7785
0.926753	2.42903	0.926505	2.42906	0.462206	14.9304	0.859562	27.5546	0.247408	7.87339	0.958701	2.79965	0.729506	23.0757
0.924445	2.42932	0.924198	2.42935	0.463755	14.5135	0.859191	26.6905	0.248691	7.73214	0.957482	2.80425	0.730983	22.4161
0.922146	2.42964	0.9219	2.42967	0.465324	14.1224	0.858813	25.8781	0.249764	7.62052	0.956269	2.80889	0.732472	21.7961
0.919855	2.42998	0.91961	2.43002	0.46691	13.7547	0.858431	25.1129	0.250619	7.5354	0.955062	2.81358	0.733971	21.212
0.917573	2.43035	0.917329	2.43039	0.468514	13.4085	0.858043	24.3908	0.251253	7.4745	0.953861	2.81831	0.735479	20.6608
0.9153	2.43074	0.915057	2.43078	0.470134	13.082	0.85765	23.7084	0.25166	7.43625	0.952666	2.82309	0.736997	20.14
0.913036	2.43116	0.912794	2.4312	0.471768	12.7735	0.857252	23.0624	0.252247	7.38222	0.951477	2.82791	0.738524	19.6469
0.910781	2.4316	0.91054	2.43165	0.473417	12.4815	0.856851	22.45	0.252889	7.32476	0.950293	2.83278	0.740058	19.1795
0.908535	2.43207	0.908295	2.43212	0.475079	12.2048	0.856447	21.8687	0.253768	7.24863	0.949115	2.83769	0.741601	18.7359
0.906299	2.43257	0.90606	2.43263	0.476754	11.9423	0.856039	21.3162	0.254887	7.15554	0.947943	2.84265	0.74315	18.3142
0.904071	2.4331	0.903833	2.43316	0.478441	11.6928	0.855628	20.7903	0.256253	7.0475	0.946775	2.84766	0.744706	17.9128
0.901854	2.43365	0.901616	2.43371	0.480139	11.4554	0.855215	20.2893	0.257871	6.92667	0.945613	2.85271	0.746268	17.5304
0.899645	2.43423	0.899409	2.4343	0.481847	11.2293	0.854801	19.8113	0.25975	6.79532	0.944456	2.8578	0.747836	17.1656
0.897446	2.43485	0.897211	2.43491	0.483565	11.0137	0.854385	19.3549	0.261649	6.67118	0.943305	2.86295	0.749409	16.8172
0.895257	2.43549	0.895023	2.43556	0.485291	10.8079	0.853968	18.9186	0.263569	6.55369	0.942158	2.86813	0.750987	16.4842
0.893077	2.43616	0.892844	2.43623	0.487027	10.6111	0.853551	18.5011	0.265507	6.44233	0.941015	2.87337	0.752569	16.1655
0.890907	2.43686	0.890675	2.43694	0.48877	10.4229	0.853133	18.1012	0.267463	6.33666	0.939878	2.87865	0.754156	15.8603
0.888747	2.43759	0.888516	2.43767	0.490521	10.2427	0.852716	17.7179	0.269437	6.23625	0.938745	2.88398	0.755747	15.5676
0.886597	2.43836	0.886367	2.43844	0.492278	10.07	0.852299	17.3502	0.271426	6.14072	0.937617	2.88936	0.757341	15.2868
0.884456	2.43915	0.884227	2.43924	0.494042	9.90425	0.851883	16.9971	0.27343	6.04973	0.936493	2.89478	0.758939	15.0172
0.882325	2.43998	0.882097	2.44007	0.495811	9.74513	0.85147	16.6578	0.275448	5.96297	0.935373	2.90025	0.760539	14.758
0.880204	2.44083	0.879977	2.44093	0.497586	9.59223	0.851057	16.3315	0.277478	5.88015	0.934258	2.90576	0.762142	14.5087
0.878093	2.44172	0.877867	2.44182	0.499365	9.44518	0.850648	16.0175	0.279522	5.801	0.933146	2.91132	0.763748	14.2687
0.875992	2.44265	0.875767	2.44275	0.501149	9.30365	0.850241	15.7151	0.281576	5.72529	0.932039	2.91693	0.765355	14.0375
0.8739	2.4436	0.873677	2.44371	0.502937	9.16732	0.849837	15.4237	0.283641	5.6528	0.930935	2.92259	0.766965	13.8146
0.871819	2.44459	0.871596	2.4447	0.504728	9.03592	0.849437	15.1427	0.285716	5.58331	0.929835	2.92829	0.768576	13.5997
0.869747	2.44561	0.869525	2.44572	0.506522	8.90918	0.84904	14.8716	0.287799	5.51665	0.928739	2.93404	0.770188	13.3922
0.867685	2.44666	0.867464	2.44678	0.508319	8.78685	0.848648	14.6098	0.289891	5.45264	0.927646	2.93984	0.771801	13.1918
0.865633	2.44775	0.865413	2.44787	0.510118	8.6687	0.848261	14.357	0.29199	5.39112	0.926557	2.94569	0.773414	12.9981
0.86359	2.44887	0.863372	2.449	0.511919	8.55451	0.847879	14.1126	0.294095	5.33195	0.92547	2.95158	0.775029	12.8107
0.861557	2.45003	0.86134	2.45015	0.513721	8.44408	0.847502	13.8763	0.296207	5.27498	0.924387	2.95752	0.776643	12.6295
0.859534	2.45122	0.859318	2.45135	0.515525	8.33723	0.847131	13.6477	0.298324	5.22008	0.923307	2.96351	0.778257	12.454
0.85752	2.45244	0.857305	2.45257	0.517329	8.23377	0.846767	13.4263	0.300445	5.16715	0.922229	2.96954	0.779872	12.2841
0.855516	2.4537	0.855302	2.45384	0.518901	8.14626	0.846409	13.212	0.302571	5.11607	0.921154	2.97562	0.781485	12.1193
0.853521	2.45499	0.853308	2.45513	0.520242	8.07353	0.846058	13.0043	0.3047	5.06673	0.920082	2.98175	0.783098	11.9596
0.851536	2.45632	0.851323	2.45646	0.52135	8.01463	0.845715	12.8031	0.306831	5.01905	0.919012	2.98793	0.78471	11.8047
0.849559	2.45768	0.849348	2.45782	0.522226	7.96884	0.845379	12.6079	0.308965	4.97293	0.917944	2.99415	0.78632	11.6543
0.847592	2.45907	0.847382	2.45922	0.522871	7.93559	0.845051	12.4185	0.3111	4.92828	0.916879	3.00043	0.787929	11.5082
0.845634	2.4605	0.845425	2.46066	0.523283	7.9145	0.844732	12.2347	0.313236	4.88504	0.915815	3.00674	0.789537	11.3664
0.843685	2.46196	0.843476	2.46212	0.523876	7.88444	0.844422	12.0563	0.315372	4.84312	0.914753	3.01311	0.791142	11.2285
0.841745	2.46346	0.841537	2.46363	0.524519	7.85209	0.844121	11.883	0.317508	4.80247	0.913692	3.01952	0.792745	11.0944
0.839813	2.46499	0.839606	2.46516	0.525395	7.80864	0.843829	11.7147	0.319643	4.763	0.912633	3.02598	0.794346	10.964
0.83789	2.46656	0.837684	2.46673	0.526502	7.75458	0.843548	11.551	0.321776	4.72468	0.911575	3.03249	0.795945	10.837
0.835975	2.46816	0.835771	2.46834	0.52784	7.69048	0.843276	11.392	0.323908	4.68742	0.910518	3.03905	0.79754	10.7135
0.834069	2.4698	0.833865	2.46997	0.529408	7.617	0.843016	11.2372	0.326037	4.6512	0.909462	3.04565	0.799132	10.5931
0.832171	2.47147	0.831968	2.47165	0.531206	7.53489	0.842766	11.0867	0.328164	4.61594	0.908407	3.05229	0.800721	10.4759
0.830281	2.47317	0.830078	2.47335	0.533001	7.45503	0.842528	10.9402	0.330286	4.58161	0.907352	3.05899	0.802307	10.3616
0.828398	2.4749	0.828197	2.47509	0.534794	7.37733	0.842301	10.7976	0.332405	4.54816	0.906297	3.06572	0.803888	10.2502
0.826524	2.47667	0.826323	2.47686	0.536584	7.30169	0.842087	10.6588	0.334519	4.51555	0.905243	3.07251	0.805466	10.1415
0.824656	2.47847	0.824457	2.47867	0.53837	7.22804	0.841884	10.5236	0.336628	4.48373	0.904188	3.07934	0.807039	10.0355
0.822796	2.48031	0.822597	2.48051	0.540153	7.15628	0.841695	10.3918	0.338731	4.45267	0.903133	3.08622	0.808608	9.93195
0.820943	2.48218	0.820745	2.48238	0.541932	7.08634	0.841518	10.2634	0.340829	4.42234	0.902078	3.09314	0.810172	9.83089
0.819098	2.48408	0.8189	2.48428	0.543707	7.01815	0.841355	10.1383	0.34292	4.3927	0.901021	3.1001	0.811732	9.73219
0.817258	2.48601	0.817062	2.48622	0.545478	6.95162	0.841206	10.0163	0.345003	4.36372	0.899964	3.10711	0.813286	9.63575
0.815426	2.48797	0.815229	2.48818	0.547244	6.88671	0.841071	9.89726	0.34708	4.33536	0.898905	3.11417	0.814834	9.54151
0.813599	2.48996	0.813404	2.49018	0.549004	6.82334	0.84095	9.7812	0.349148	4.30761	0.897845	3.12126	0.816378	9.44937
0.811779	2.49199	0.811584	2.49221	0.550759	6.76145	0.840843	9.66796	0.351208	4.28042	0.896783	3.1284	0.817915	9.35926
0.809964	2.49404	0.80977	2.49427	0.552509	6.70099	0.840752	9.55745	0.353259	4.25378	0.895719	3.13559	0.819446	9.27112
0.808155	2.49613	0.807961	2.49636	0.554252	6.6419	0.840676	9.4496	0.3553	4.22765	0.894653	3.14281	0.820972	9.18487
0.806351	2.49824	0.806158	2.49847	0.555989	6.58413	0.840616	9.3443	0.357332	4.20203	0.893584	3.15008	0.82249	9.10045
0.804552	2.50039	0.80436	2.50062	0.55772	6.52763	0.840571	9.24149	0.359353	4.17688	0.892512	3.15739	0.824002	9.0178
0.802758	2.50256	0.802566	2.50279	0.559444	6.47236	0.840543	9.14108	0.361364	4.15218	0.891438	3.16474	0.825507	8.93685
0.800969	2.50476	0.800777	2.50499	0.56116	6.41826	0.840532	9.043	0.363364	4.12791	0.89036	3.17213	0.827005	8.85756
0.799183	2.50698	0.798992	2.50722	0.562869	6.36529	0.840537	8.94718	0.365352	4.10406	0.889278	3.17956	0.828496	8.77986
0.797402	2.50923	0.797211	2.50948	0.564571	6.31342	0.84056	8.85355	0.367328	4.0806	0.888192	3.18702	0.829978	8.70371
0.795624	2.51151	0.795433	2.51176	0.566264	6.2626	0.840599	8.76205	0.369291	4.05752	0.887102	3.19453	0.831265	8.63857
0.793849	2.51381	0.793659	2.51406	0.567949	6.2128	0.840649	8.684	0.371243	4.0348	0.886007	3.20207	0.832356	8.58391
0.792077	2.51614	0.791887	2.51639	0.569626	6.16398	0.840701	8.61867	0.37318	4.01243	0.884908	3.20965	0.833255	8.5393
0.790308	2.51848	0.790118	2.51874	0.571294	6.11611	0.840753	8.56546	0.375105	3.99039	0.883803	3.21727	0.833964	8.5044
0.78854	2.52085	0.788351	2.52111	0.572952	6.06915	0.840798	8.52391	0.377015	3.96866	0.882693	3.22492	0.834484	8.47894
0.786774	2.52324	0.786585	2.5235	0.574601	6.02307	0.840834	8.49365	0.378912	3.94723	0.881577	3.2326	0.834816	8.46274
0.78501	2.52565	0.784821	2.52591	0.576241	5.97785	0.840858	8.47441	0.380793	3.9261	0.880454	3.24032	0.835293	8.43958
0.783247	2.52808	0.783058	2.52834	0.577871	5.93345	0.840895	8.44692	0.38266	3.90524	0.879325	3.24807	0.83581	8.41456
0.781484	2.53052	0.781295	2.53079	0.579491	5.88984	0.840937	8.41726	0.384512	3.88465	0.878189	3.25586	0.836511	8.3808
0.779721	2.53299	0.779532	2.53325	0.5811	5.84701	0.840999	8.37731	0.386348	3.86432	0.877046	3.26367	0.837396	8.33855
0.777957	2.53546	0.777768	2.53573	0.582699	5.80492	0.841083	8.32739	0.388168	3.84423	0.875895	3.27151	0.838461	8.28809
0.776193	2.53795	0.776004	2.53822	0.584287	5.76355	0.841194	8.26793	0.389973	3.82438	0.874736	3.27938	0.839704	8.22977
0.774428	2.54045	0.774238	2.54072	0.585863	5.72287	0.841337	8.19939	0.391761	3.80475	0.873569	3.28728	0.841122	8.16397
0.77266	2.54296	0.772471	2.54323	0.587429	5.68287	0.841521	8.12233	0.393533	3.78534	0.872392	3.29521	0.84253	8.09934
0.77089	2.54548	0.7707	2.54575	0.588983	5.64353	0.841724	8.04693	0.395287	3.76614	0.871207	3.30316	0.843929	8.03584
0.769117	2.54801	0.768927	2.54828	0.590525	5.60481	0.841947	7.97314	0.397026	3.74714	0.870012	3.31113	0.845318	7.97345
0.767341	2.55054	0.76715	2.55081	0.592055	5.56671	0.84219	7.90092	0.398746	3.72833	0.868808	3.31913	0.846698	7.91213
0.765561	2.55307	0.765369	2.55334	0.593573	5.5292	0.842453	7.83023	0.40045	3.70971	0.867593	3.32715	0.848067	7.85184
0.763775	2.55561	0.763584	2.55588	0.595079	5.49227	0.842738	7.76102	0.402137	3.69128	0.866367	3.33519	0.849426	7.79257
0.761985	2.55814	0.761793	2.55841	0.596572	5.4559	0.843043	7.69326	0.403806	3.67301	0.865131	3.34325	0.850775	7.73427
0.760189	2.56068	0.759996	2.56095	0.598053	5.42007	0.843368	7.62691	0.405457	3.65492	0.863883	3.35132	0.852114	7.67692
0.758387	2.5632	0.758193	2.56347	0.599521	5.38476	0.843715	7.56194	0.407091	3.637	0.862623	3.35942	0.853441	7.6205
0.756577	2.56573	0.756383	2.566	0.600975	5.34997	0.844084	7.4983	0.408708	3.61923	0.861351	3.36752	0.854758	7.56498
0.75476	2.56824	0.754565	2.56851	0.602417	5.31567	0.844474	7.43597	0.410306	3.60162	0.860066	3.37565	0.856064	7.51033
0.752935	2.57074	0.752739	2.57101	0.603845	5.28185	0.844885	7.37491	0.411888	3.58417	0.858769	3.38378	0.857359	7.45654
0.751101	2.57323	0.750904	2.5735	0.605259	5.24849	0.845319	7.3151	0.413451	3.56686	0.857458	3.39193	0.858643	7.40357
0.749258	2.5757	0.74906	2.57597	0.60666	5.2156	0.845774	7.25649	0.414997	3.54969	0.856134	3.40009	0.859915	7.3514
0.747405	2.57816	0.747205	2.57842	0.608048	5.18314	0.846251	7.19906	0.416526	3.53267	0.854796	3.40826	0.861176	7.30002
0.745541	2.5806	0.74534	2.58086	0.609421	5.15111	0.84675	7.14279	0.418037	3.51579	0.853443	3.41643	0.862425	7.24941
0.743666	2.58301	0.743464	2.58327	0.610781	5.11951	0.847272	7.08764	0.419532	3.49905	0.852076	3.42461	0.863663	7.19953
0.741779	2.5854	0.741576	2.58566	0.612127	5.0883	0.847815	7.03358	0.421009	3.48244	0.850693	3.4328	0.864889	7.15039
0.73988	2.58777	0.739676	2.58802	0.613458	5.0575	0.848382	6.9806	0.42247	3.46597	0.849296	3.44099	0.866104	7.10195
0.737969	2.59011	0.737763	2.59036	0.614776	5.02708	0.84897	6.92866	0.423914	3.44963	0.847883	3.44918	0.867306	7.05419
0.736044	2.59242	0.735837	2.59266	0.616079	4.99704	0.849581	6.87774	0.425341	3.43341	0.846454	3.45738	0.868497	7.00711
0.734106	2.59469	0.733898	2.59493	0.617368	4.96737	0.850214	6.82781	0.426753	3.41733	0.845009	3.46557	0.869676	6.96069
0.732154	2.59694	0.731944	2.59717	0.618643	4.93805	0.85087	6.77885	0.428148	3.40138	0.843547	3.47377	0.870843	6.91491
0.730188	2.59914	0.729977	2.59938	0.619904	4.90909	0.851549	6.73085	0.429528	3.38555	0.842069	3.48197	0.871998	6.86975
0.728207	2.60132	0.727994	2.60155	0.62115	4.88046	0.852249	6.68377	0.430893	3.36986	0.840574	3.49016	0.873142	6.8252
0.726212	2.60345	0.725997	2.60368	0.622383	4.85217	0.852972	6.63759	0.432243	3.35429	0.839062	3.49835	0.874273	6.78124
0.724201	2.60554	0.723984	2.60577	0.623601	4.82421	0.853718	6.59229	0.433579	3.33884	0.837533	3.50653	0.875392	6.73787
0.722175	2.6076	0.721957	2.60782	0.624805	4.79656	0.854486	6.54786	0.4349	3.32352	0.835986	3.51472	0.8765	6.69507
0.720133	2.60961	0.719914	2.60983	0.625994	4.76923	0.855276	6.50427	0.436207	3.30833	0.834422	3.52289	0.877596	6.65282
0.718076	2.61159	0.717855	2.61179	0.62717	4.7422	0.856088	6.46151	0.437501	3.29327	0.83284	3.53106	0.87868	6.61112
0.716004	2.61352	0.715781	2.61372	0.628332	4.71547	0.856923	6.41955	0.438782	3.27833	0.83124	3.53922	0.879752	6.56996
0.713916	2.6154	0.713691	2.6156	0.62948	4.68904	0.857779	6.37837	0.44005	3.26352	0.829623	3.54738	0.880813	6.52931
0.711813	2.61725	0.711586	2.61744	0.630614	4.66289	0.858657	6.33796	0.441307	3.24884	0.827988	3.55553	0.881862	6.48918
0.709694	2.61905	0.709466	2.61924	0.631735	4.63703	0.859557	6.29829	0.442551	3.23429	0.826334	3.56367	0.8829	6.44954
0.70756	2.62081	0.70733	2.62099	0.632842	4.61144	0.860478	6.25936	0.443784	3.21986	0.824663	3.57181	0.883926	6.4104
0.70541	2.62252	0.705179	2.6227	0.633936	4.58612	0.861421	6.22115	0.445006	3.20556	0.822974	3.57994	0.884941	6.37174
0.703246	2.62419	0.703014	2.62437	0.635016	4.56107	0.862385	6.18363	0.446218	3.1914	0.821267	3.58806	0.885945	6.33355
0.701068	2.62582	0.700833	2.62599	0.636084	4.53629	0.86337	6.14679	0.44742	3.17736	0.819542	3.59617	0.886939	6.29582
0.698874	2.62741	0.698639	2.62758	0.637138	4.51176	0.864376	6.11062	0.448613	3.16345	0.8178	3.60428	0.887922	6.25854
0.696667	2.62895	0.69643	2.62912	0.63818	4.48749	0.865402	6.0751	0.449797	3.14968	0.816039	3.61238	0.888894	6.22172
0.694446	2.63046	0.694207	2.63062	0.639209	4.46346	0.866449	6.04021	0.450972	3.13603	0.814262	3.62047	0.889855	6.18533
0.692211	2.63192	0.691971	2.63208	0.640226	4.43968	0.867515	6.00594	0.452139	3.12252	0.812467	3.62856	0.890807	6.14937
0.689964	2.63335	0.689722	2.6335	0.64123	4.41615	0.868602	5.97229	0.453298	3.10914	0.810655	3.63665	0.891749	6.11383
0.687703	2.63474	0.68746	2.63489	0.642223	4.39285	0.869708	5.93922	0.454451	3.0959	0.808826	3.64473	0.892681	6.07871
0.68543	2.63609	0.685185	2.63623	0.643204	4.36979	0.870834	5.90673	0.455597	3.08278	0.80698	3.6528	0.893604	6.044
0.683144	2.6374	0.682899	2.63754	0.644174	4.34696	0.871978	5.8748	0.456737	3.06981	0.805118	3.66088	0.894517	6.0097
0.680848	2.63868	0.680601	2.63882	0.645132	4.32437	0.873142	5.84343	0.457871	3.05697	0.80324	3.66895	0.895421	5.97578
0.678539	2.63993	0.678291	2.64006	0.646079	4.30199	0.874323	5.81259	0.459	3.04426	0.801345	3.67703	0.896317	5.94226
0.67622	2.64114	0.675971	2.64127	0.647016	4.27985	0.875523	5.78228	0.460124	3.03169	0.799435	3.68511	0.897205	5.90913
0.67389	2.64232	0.67364	2.64244	0.647942	4.25792	0.876741	5.75248	0.461244	3.01925	0.79751	3.69319	0.898084	5.87637
0.67155	2.64346	0.671298	2.64359	0.648858	4.23621	0.877976	5.72318	0.46236	3.00695	0.795569	3.70128	0.898955	5.84398
0.6692	2.64458	0.668947	2.6447	0.649765	4.21472	0.879229	5.69438	0.463472	2.99479	0.793614	3.70937	0.899819	5.81197
0.66684	2.64567	0.666586	2.64579	0.650661	4.19344	0.880498	5.66605	0.464582	2.98276	0.791645	3.71747	0.900676	5.78031
0.664471	2.64673	0.664217	2.64684	0.651548	4.17238	0.881784	5.63818	0.465689	2.97087	0.789662	3.72558	0.901526	5.74902
0.662093	2.64777	0.661838	2.64787	0.652426	4.15152	0.883086	5.61077	0.466794	2.95912	0.787665	3.73371	0.902369	5.71808
0.659707	2.64877	0.659451	2.64888	0.653296	4.13087	0.884404	5.58381	0.467898	2.94751	0.785655	3.74185	0.903207	5.68749
0.657313	2.64976	0.657056	2.64986	0.654157	4.11043	0.885737	5.55728	0.469	2.93603	0.783632	3.75	0.904038	5.65724
0.654911	2.65072	0.654653	2.65082	0.655009	4.09019	0.887085	5.53117	0.470101	2.92469	0.781597	3.75818	0.904864	5.62734
