Sym0		Asym0		Sym1		Sym2		Sym3		Asym1		Asym2		Asym3	
422  Points		428  Points		422  Points		382  Points		313  Points		428  Points		394  Points		266  Points	
Freq (MHz)	Vph (m/ms)	Freq (MHz)	Vph (m/ms)	Freq (MHz)	Vph (m/ms)	Freq (MHz)	Vph (m/ms)	Freq (MHz)	Vph (m/ms)	Freq (MHz)	Vph (m/ms)	Freq (MHz)	Vph (m/ms)	Freq (MHz)	Vph (m/ms)
1.00137	2.41381	0.21651	698.194	1.00006	2.41347	0.433013	2764	0.866022	3417.52	0.216528	274.016	1.00198	2.594	0.649523	2350.24
0.998672	2.41311	0.216567	165.809	0.997368	2.41276	0.43305	375.687	0.865941	693.069	0.216619	121.272	0.999364	2.59392	0.649606	510.541
0.995977	2.4124	0.216694	94.1269	0.994674	2.41206	0.433141	201.582	0.865755	385.559	0.21678	77.9154	0.996752	2.59385	0.649795	286.454
0.993282	2.41169	0.216891	65.761	0.99198	2.41135	0.433286	137.782	0.865468	266.998	0.217011	57.4365	0.994143	2.59378	0.650088	199.143
0.99059	2.41098	0.217158	50.57	0.989288	2.41064	0.433487	104.688	0.865083	204.149	0.217311	45.5168	0.991539	2.59373	0.650482	152.679
0.987898	2.41028	0.217493	41.1123	0.986597	2.40994	0.433741	84.4383	0.864608	165.206	0.217679	37.7239	0.988938	2.59368	0.650971	123.842
0.985209	2.40957	0.217896	34.6624	0.983908	2.40923	0.434049	70.7749	0.864049	138.702	0.218115	32.2353	0.986342	2.59365	0.651552	104.206
0.98252	2.40886	0.218367	29.9861	0.981221	2.40852	0.434409	60.9369	0.863414	119.494	0.218618	28.1638	0.98375	2.59363	0.652218	89.9794
0.979834	2.40816	0.218904	26.4432	0.978535	2.40782	0.434821	53.5174	0.862712	104.932	0.219186	25.0259	0.981164	2.59362	0.652965	79.1995
0.977149	2.40745	0.219506	23.6682	0.975851	2.40711	0.435285	47.724	0.861948	93.5109	0.21982	22.5354	0.978583	2.59362	0.653786	70.7516
0.974465	2.40675	0.220173	21.4377	0.973168	2.40641	0.435799	43.0763	0.861131	84.3118	0.220516	20.5123	0.976007	2.59364	0.654675	63.9544
0.971784	2.40604	0.220901	19.6072	0.970487	2.4057	0.436362	39.2662	0.860266	76.7432	0.221275	18.8375	0.973438	2.59368	0.655628	58.3682
0.969104	2.40534	0.221691	18.079	0.967808	2.405	0.436974	36.0868	0.85936	70.4065	0.222093	17.4294	0.970876	2.59374	0.656639	53.6967
0.966425	2.40464	0.222541	16.7849	0.965131	2.4043	0.437632	33.3943	0.858419	65.0233	0.222971	16.2297	0.968321	2.59381	0.657702	49.733
0.963749	2.40393	0.223449	15.6757	0.962455	2.40359	0.438336	31.0855	0.857447	60.3932	0.223907	15.1961	0.965773	2.59391	0.658815	46.3279
0.961074	2.40323	0.224413	14.7152	0.959782	2.40289	0.439085	29.0842	0.856449	56.3684	0.224898	14.2969	0.963234	2.59403	0.659971	43.3714
0.958402	2.40253	0.225433	13.8758	0.95711	2.4022	0.439878	27.3334	0.855428	52.8375	0.225943	13.508	0.960704	2.59418	0.661168	40.7808
0.955731	2.40184	0.226505	13.1364	0.954441	2.4015	0.440712	25.7891	0.854388	49.7147	0.227041	12.8108	0.958184	2.59435	0.662402	38.4921
0.953063	2.40114	0.227629	12.4807	0.951773	2.40081	0.441587	24.4172	0.853333	46.9332	0.228189	12.1905	0.955673	2.59455	0.66367	36.4558
0.950397	2.40045	0.228803	11.8954	0.949108	2.40011	0.442502	23.1906	0.852264	44.44	0.229386	11.6353	0.953174	2.59478	0.664968	34.6323
0.947732	2.39975	0.230024	11.3701	0.946445	2.39942	0.443455	22.0876	0.851184	42.1924	0.23063	11.1358	0.950687	2.59504	0.666295	32.9901
0.94507	2.39906	0.231292	10.8963	0.943784	2.39873	0.444445	21.0906	0.850096	40.1559	0.231919	10.6842	0.948212	2.59535	0.667648	31.5034
0.942411	2.39838	0.232604	10.467	0.941125	2.39805	0.44547	20.1852	0.849002	38.3021	0.233252	10.2742	0.945751	2.59568	0.669025	30.1513
0.939753	2.39769	0.233959	10.0764	0.938469	2.39736	0.44653	19.3594	0.847902	36.6075	0.234627	9.90041	0.943304	2.59607	0.670423	28.9163
0.937098	2.39701	0.235355	9.71953	0.935815	2.39668	0.447622	18.6034	0.846799	35.0526	0.236042	9.55839	0.940873	2.59649	0.671842	27.7839
0.934446	2.39633	0.23679	9.39245	0.933164	2.396	0.448746	17.9088	0.845694	33.6207	0.237495	9.24438	0.938458	2.59697	0.673279	26.7419
0.931796	2.39565	0.238263	9.09167	0.930515	2.39533	0.4499	17.2684	0.844589	32.2978	0.238986	8.95519	0.936061	2.59749	0.674733	25.7797
0.929148	2.39498	0.239771	8.81423	0.927869	2.39466	0.451083	16.6763	0.843483	31.072	0.240511	8.68807	0.933683	2.59807	0.676203	24.8888
0.926504	2.39431	0.241314	8.5576	0.925226	2.39399	0.452294	16.1272	0.84238	29.9331	0.242069	8.44068	0.931324	2.59871	0.677687	24.0613
0.923862	2.39364	0.242889	8.3196	0.922585	2.39332	0.453531	15.6167	0.841278	28.8721	0.243659	8.21096	0.928987	2.59942	0.679185	23.2908
0.921223	2.39298	0.244495	8.09833	0.919947	2.39266	0.454794	15.1409	0.84018	27.8813	0.24528	7.99715	0.926673	2.60019	0.680695	22.5717
0.918587	2.39232	0.246131	7.89213	0.917313	2.39201	0.456082	14.6965	0.839086	26.9541	0.246929	7.7977	0.924382	2.60103	0.682217	21.8988
0.915953	2.39167	0.247794	7.69957	0.914681	2.39135	0.457392	14.2804	0.837996	26.0845	0.248606	7.61124	0.922116	2.60195	0.683749	21.268
0.913323	2.39102	0.249484	7.51937	0.912052	2.39071	0.458724	13.89	0.836912	25.2674	0.250308	7.43659	0.919877	2.60294	0.685291	20.6754
0.910696	2.39038	0.2512	7.35041	0.909427	2.39007	0.460078	13.5232	0.835835	24.4982	0.251812	7.29319	0.917665	2.60402	0.686841	20.1177
0.908072	2.38974	0.252938	7.19169	0.906805	2.38943	0.461451	13.1777	0.834764	23.7728	0.253107	7.17691	0.915482	2.60519	0.6884	19.5918
0.905452	2.3891	0.254699	7.04232	0.904186	2.3888	0.462843	12.8519	0.8337	23.0876	0.254188	7.08464	0.913329	2.60645	0.689967	19.0951
0.902835	2.38848	0.256482	6.90153	0.901571	2.38817	0.464254	12.5442	0.832644	22.4394	0.255048	7.01403	0.911207	2.60781	0.69154	18.6252
0.900222	2.38785	0.258283	6.7686	0.898959	2.38756	0.465681	12.253	0.831596	21.8253	0.255683	6.96339	0.909117	2.60927	0.69312	18.1801
0.897612	2.38724	0.260103	6.64291	0.896351	2.38694	0.467124	11.977	0.830557	21.2428	0.256091	6.93153	0.90706	2.61083	0.694706	17.7577
0.895006	2.38663	0.261941	6.52388	0.893747	2.38634	0.468582	11.7153	0.829527	20.6894	0.25668	6.88646	0.905036	2.61249	0.696297	17.3565
0.892404	2.38603	0.263794	6.411	0.891147	2.38574	0.470055	11.4665	0.828507	20.1631	0.257322	6.83842	0.903047	2.61427	0.697893	16.9748
0.889806	2.38543	0.265662	6.30382	0.888551	2.38515	0.471541	11.2299	0.827498	19.6619	0.258199	6.77463	0.901093	2.61615	0.699493	16.6113
0.887212	2.38485	0.267544	6.2019	0.885958	2.38457	0.473039	11.0046	0.826498	19.1841	0.259314	6.69639	0.899174	2.61815	0.701097	16.2647
0.884622	2.38427	0.269439	6.10486	0.883371	2.38399	0.474549	10.7897	0.82551	18.7282	0.260672	6.60525	0.89729	2.62026	0.702704	15.9338
0.882036	2.3837	0.271345	6.01237	0.880787	2.38343	0.47607	10.5846	0.824533	18.2927	0.262277	6.50289	0.89544	2.62249	0.704314	15.6176
0.879455	2.38314	0.273262	5.9241	0.878208	2.38287	0.477602	10.3886	0.823568	17.8762	0.264133	6.39108	0.893626	2.62484	0.705927	15.3151
0.876878	2.38259	0.275188	5.83976	0.875634	2.38232	0.479142	10.2011	0.822614	17.4777	0.266004	6.28489	0.891847	2.62729	0.707542	15.0255
0.874307	2.38205	0.277123	5.75909	0.873064	2.38179	0.480692	10.0215	0.821673	17.0959	0.267888	6.18388	0.890101	2.62987	0.709159	14.7479
0.87174	2.38151	0.279065	5.68184	0.8705	2.38126	0.482249	9.84949	0.820745	16.7299	0.269785	6.0877	0.888389	2.63256	0.710778	14.4816
0.869178	2.38099	0.281014	5.6078	0.86794	2.38075	0.483813	9.68443	0.81983	16.3787	0.271693	5.99599	0.886709	2.63536	0.712397	14.2259
0.866621	2.38049	0.282969	5.53676	0.865386	2.38024	0.485385	9.52596	0.818929	16.0415	0.273612	5.90846	0.885062	2.63827	0.714018	13.9802
0.864069	2.37999	0.284928	5.46852	0.862837	2.37975	0.486962	9.37368	0.818041	15.7175	0.27554	5.82481	0.883445	2.64129	0.715638	13.7439
0.861523	2.3795	0.286891	5.40292	0.860294	2.37927	0.488544	9.22723	0.817168	15.4059	0.277476	5.74478	0.881858	2.64442	0.717259	13.5164
0.858983	2.37903	0.288858	5.33979	0.857756	2.37881	0.490131	9.08627	0.816308	15.106	0.27942	5.66813	0.880301	2.64766	0.718879	13.2974
0.856448	2.37857	0.290826	5.27897	0.855224	2.37836	0.491722	8.95049	0.815464	14.8173	0.28137	5.59465	0.878771	2.651	0.720499	13.0863
0.853919	2.37813	0.292796	5.22035	0.852699	2.37792	0.493316	8.81961	0.814635	14.5391	0.283325	5.52413	0.877269	2.65445	0.722118	12.8826
0.851397	2.3777	0.294766	5.16378	0.850179	2.3775	0.494913	8.69336	0.813822	14.2709	0.285285	5.45639	0.875792	2.65799	0.723736	12.6861
0.848881	2.37729	0.296736	5.10914	0.847666	2.37709	0.496513	8.57149	0.813024	14.0121	0.287249	5.39125	0.874341	2.66163	0.725352	12.4962
0.846371	2.37689	0.298705	5.05633	0.84516	2.3767	0.498114	8.45377	0.812242	13.7624	0.289216	5.32855	0.872913	2.66537	0.726966	12.3127
0.843868	2.37651	0.300672	5.00523	0.84266	2.37633	0.499715	8.33998	0.811477	13.5213	0.291185	5.26815	0.871509	2.6692	0.728579	12.1353
0.841372	2.37614	0.302636	4.95576	0.840167	2.37597	0.501318	8.22991	0.810728	13.2883	0.293155	5.2099	0.870127	2.67312	0.730188	11.9637
0.838883	2.37579	0.304597	4.90783	0.837682	2.37563	0.50292	8.12339	0.809997	13.063	0.295125	5.15369	0.868766	2.67713	0.731795	11.7975
0.836402	2.37547	0.306554	4.86134	0.835204	2.37532	0.504522	8.02023	0.809283	12.8452	0.297095	5.09939	0.867426	2.68123	0.733399	11.6365
0.833928	2.37516	0.308506	4.81622	0.832734	2.37502	0.506122	7.92027	0.808587	12.6344	0.299063	5.0469	0.866106	2.68542	0.735	11.4805
0.831461	2.37487	0.310452	4.77239	0.830271	2.37474	0.507721	7.82335	0.807908	12.4303	0.30103	4.99611	0.864804	2.68969	0.736597	11.3291
0.829003	2.37461	0.312392	4.72979	0.827817	2.37449	0.509318	7.72933	0.807248	12.2327	0.302994	4.94693	0.86352	2.69404	0.73819	11.1823
0.826553	2.37436	0.314324	4.68835	0.825371	2.37425	0.510912	7.63806	0.806607	12.0413	0.304954	4.89926	0.862254	2.69848	0.739779	11.0398
0.824111	2.37414	0.316249	4.64801	0.822933	2.37404	0.512298	7.56068	0.805985	11.8557	0.30691	4.85302	0.861005	2.70299	0.741364	10.9015
0.821678	2.37394	0.318166	4.60871	0.820504	2.37386	0.513478	7.49624	0.805382	11.6758	0.30886	4.80814	0.859772	2.70759	0.742944	10.767
0.819254	2.37377	0.320073	4.5704	0.818085	2.3737	0.514452	7.44396	0.804799	11.5012	0.310805	4.76455	0.858554	2.71226	0.744518	10.6363
0.816839	2.37362	0.321971	4.53302	0.815674	2.37356	0.515221	7.40326	0.804236	11.3319	0.312744	4.72216	0.857352	2.71701	0.746088	10.5092
0.814433	2.3735	0.323857	4.49653	0.813273	2.37345	0.515786	7.37369	0.803693	11.1675	0.314675	4.68093	0.856164	2.72184	0.747651	10.3855
0.812037	2.37341	0.325733	4.46089	0.810882	2.37337	0.516147	7.35491	0.803171	11.0079	0.316599	4.64078	0.85499	2.72674	0.749209	10.2651
0.809651	2.37334	0.327597	4.42604	0.808501	2.37332	0.516665	7.32813	0.80267	10.8529	0.318514	4.60166	0.85383	2.73171	0.750761	10.1479
0.807275	2.37331	0.329449	4.39196	0.80613	2.3733	0.517228	7.29929	0.80219	10.7023	0.320419	4.56353	0.852682	2.73677	0.752306	10.0337
0.804909	2.3733	0.331288	4.3586	0.803769	2.37331	0.517993	7.26051	0.801732	10.5559	0.322315	4.52631	0.851548	2.74189	0.753844	9.92237
0.802555	2.37333	0.333113	4.32592	0.801419	2.37335	0.518958	7.21219	0.801295	10.4136	0.3242	4.48998	0.850425	2.74709	0.755375	9.81387
0.800211	2.37339	0.334924	4.2939	0.799081	2.37343	0.520123	7.1548	0.800881	10.2752	0.326074	4.45449	0.849315	2.75235	0.756899	9.70804
0.797878	2.37348	0.33672	4.26249	0.796753	2.37354	0.521485	7.08889	0.800489	10.1406	0.327935	4.41978	0.848216	2.75769	0.758416	9.60479
0.795556	2.37361	0.338501	4.23168	0.794438	2.37368	0.523041	7.01507	0.80012	10.0096	0.329785	4.38583	0.847128	2.7631	0.759924	9.50401
0.793246	2.37377	0.340266	4.20143	0.792133	2.37386	0.524591	6.94311	0.799775	9.88214	0.331621	4.3526	0.846051	2.76859	0.761425	9.40561
0.790948	2.37397	0.342014	4.17171	0.789841	2.37408	0.526134	6.87292	0.799452	9.75806	0.333444	4.32004	0.844985	2.77414	0.762917	9.3095
0.788662	2.37421	0.343746	4.14251	0.787561	2.37434	0.527668	6.80443	0.799154	9.63725	0.335252	4.28813	0.843929	2.77976	0.7644	9.2156
0.786389	2.37448	0.34546	4.11379	0.785294	2.37463	0.529195	6.73758	0.798879	9.5196	0.337045	4.25684	0.842883	2.78546	0.765874	9.12381
0.784128	2.3748	0.347156	4.08553	0.783039	2.37496	0.530712	6.67229	0.798629	9.40499	0.338823	4.22613	0.841847	2.79122	0.76734	9.03407
0.78188	2.37515	0.348834	4.05772	0.780797	2.37534	0.532221	6.6085	0.798403	9.29333	0.340585	4.19598	0.84082	2.79705	0.768795	8.9463
0.779645	2.37555	0.350494	4.03033	0.778569	2.37576	0.53372	6.54616	0.798202	9.18451	0.34233	4.16636	0.839803	2.80295	0.770241	8.86043
0.777423	2.37599	0.352134	4.00334	0.776354	2.37622	0.535209	6.4852	0.798027	9.07844	0.344059	4.13724	0.838794	2.80892	0.771677	8.77639
0.775215	2.37648	0.353755	3.97673	0.774152	2.37673	0.536688	6.42557	0.797877	8.97504	0.34577	4.10861	0.837794	2.81497	0.773103	8.69412
0.77302	2.37701	0.355357	3.9505	0.771964	2.37728	0.538156	6.36722	0.797752	8.87421	0.347463	4.08044	0.836803	2.82108	0.774518	8.61355
0.770839	2.37758	0.356938	3.92462	0.76979	2.37788	0.539614	6.3101	0.797654	8.77588	0.349138	4.0527	0.835819	2.82725	0.775922	8.53463
0.768672	2.37821	0.358499	3.89909	0.76763	2.37852	0.541059	6.25416	0.797581	8.67997	0.350794	4.02538	0.834844	2.8335	0.777315	8.4573
0.76652	2.37888	0.360039	3.87387	0.765484	2.37922	0.542493	6.19935	0.797535	8.58639	0.352431	3.99847	0.833877	2.83982	0.778697	8.38151
0.764381	2.3796	0.361559	3.84898	0.763352	2.37996	0.543914	6.14565	0.797516	8.49509	0.354048	3.97193	0.832917	2.84621	0.780068	8.3072
0.762257	2.38036	0.363057	3.82438	0.761235	2.38075	0.545323	6.093	0.797523	8.40598	0.355646	3.94577	0.831965	2.85266	0.781427	8.23433
0.760148	2.38118	0.364535	3.80007	0.759132	2.3816	0.546719	6.04136	0.797558	8.31901	0.357223	3.91995	0.83102	2.85918	0.782773	8.16285
0.758053	2.38205	0.365991	3.77605	0.757045	2.38249	0.548102	5.99071	0.79762	8.23411	0.358781	3.89447	0.830081	2.86578	0.784108	8.09271
0.755972	2.38297	0.367427	3.7523	0.754971	2.38344	0.549471	5.94099	0.797709	8.15122	0.360317	3.86932	0.82915	2.87244	0.78543	8.02387
0.753907	2.38395	0.368841	3.72881	0.752913	2.38444	0.550826	5.89219	0.797825	8.07027	0.361833	3.84448	0.828225	2.87917	0.786572	7.96491
0.751856	2.38498	0.370234	3.70558	0.75087	2.38549	0.552167	5.84427	0.79795	8.00128	0.363328	3.81993	0.827307	2.88597	0.787538	7.91539
0.74982	2.38606	0.371605	3.6826	0.748841	2.3866	0.553494	5.7972	0.798072	7.94358	0.364802	3.79568	0.826395	2.89284	0.788332	7.87494
0.747799	2.38719	0.372956	3.65985	0.746827	2.38776	0.554806	5.75094	0.798185	7.89661	0.366254	3.77171	0.825488	2.89978	0.788956	7.84326
0.745793	2.38838	0.374285	3.63735	0.744828	2.38898	0.556103	5.70548	0.798282	7.85995	0.367686	3.748	0.824588	2.90678	0.789412	7.82015
0.743802	2.38963	0.375594	3.61508	0.742844	2.39025	0.557384	5.66078	0.798358	7.83326	0.369096	3.72456	0.823693	2.91386	0.789704	7.80543
0.741825	2.39093	0.376882	3.59303	0.740875	2.39158	0.55865	5.61682	0.798408	7.81629	0.370485	3.70138	0.822804	2.92101	0.790121	7.78438
0.739864	2.39228	0.37815	3.57121	0.73892	2.39296	0.559901	5.57358	0.798482	7.79206	0.371853	3.67844	0.821919	2.92822	0.790574	7.76164
0.737917	2.3937	0.379398	3.5496	0.73698	2.3944	0.561135	5.53103	0.798567	7.76592	0.373199	3.65574	0.82104	2.9355	0.791186	7.73093
0.735984	2.39517	0.380626	3.52821	0.735055	2.3959	0.562354	5.48914	0.798688	7.73073	0.374525	3.63328	0.820165	2.94286	0.791957	7.69247
0.734066	2.3967	0.381834	3.50703	0.733144	2.39745	0.563556	5.44791	0.79885	7.68678	0.37583	3.61105	0.819295	2.95028	0.792881	7.64649
0.732163	2.39828	0.383024	3.48607	0.731248	2.39907	0.564741	5.40731	0.799061	7.63445	0.377115	3.58904	0.81843	2.95777	0.793956	7.5933
0.730274	2.39992	0.384194	3.46531	0.729365	2.40074	0.565911	5.36732	0.799328	7.57419	0.378379	3.56726	0.817568	2.96533	0.795177	7.53322
0.728399	2.40162	0.385347	3.44475	0.727497	2.40246	0.567063	5.32792	0.79966	7.50649	0.379623	3.54569	0.81671	2.97296	0.796384	7.47412
0.726538	2.40338	0.386481	3.42441	0.725643	2.40425	0.568199	5.28909	0.800021	7.44032	0.380847	3.52434	0.815856	2.98066	0.797577	7.416
0.724691	2.40519	0.387598	3.40426	0.723802	2.40609	0.569318	5.25083	0.800411	7.37562	0.382052	3.5032	0.815006	2.98843	0.798755	7.35881
0.722857	2.40706	0.388699	3.38432	0.721975	2.40799	0.57042	5.2131	0.800828	7.31235	0.383238	3.48227	0.814158	2.99626	0.79992	7.30253
0.721037	2.40899	0.389783	3.36458	0.720162	2.40995	0.571505	5.17591	0.801274	7.25048	0.384405	3.46155	0.813314	3.00417	0.80107	7.24713
0.719231	2.41098	0.390851	3.34504	0.718361	2.41196	0.572574	5.13922	0.801748	7.18997	0.385554	3.44103	0.812472	3.01214	0.802206	7.1926
0.717437	2.41302	0.391904	3.3257	0.716574	2.41403	0.573625	5.10304	0.802251	7.13078	0.386686	3.42072	0.811633	3.02018	0.803328	7.1389
0.715656	2.41513	0.392942	3.30657	0.714799	2.41616	0.574659	5.06734	0.802781	7.07288	0.3878	3.40062	0.810796	3.02829	0.804435	7.08602
0.713888	2.41728	0.393967	3.28763	0.713037	2.41835	0.575677	5.03211	0.80334	7.01623	0.388897	3.38071	0.809961	3.03647	0.805528	7.03393
0.712132	2.4195	0.394978	3.2689	0.711287	2.42059	0.576677	4.99735	0.803926	6.9608	0.389978	3.36101	0.809128	3.04471	0.806606	6.98261
0.710388	2.42177	0.395976	3.25036	0.709549	2.42289	0.577661	4.96304	0.80454	6.90655	0.391044	3.34151	0.808296	3.05302	0.80767	6.93205
0.708656	2.4241	0.396961	3.23203	0.707823	2.42524	0.578628	4.92917	0.805181	6.85346	0.392094	3.32221	0.807465	3.0614	0.808719	6.88222
0.706936	2.42648	0.397936	3.2139	0.706108	2.42765	0.579579	4.89573	0.80585	6.80149	0.39313	3.30311	0.806635	3.06985	0.809754	6.83311
0.705227	2.42892	0.398899	3.19597	0.704404	2.43011	0.580513	4.8627	0.806546	6.75061	0.394152	3.28421	0.805806	3.07836	0.810774	6.7847
0.703529	2.43141	0.399852	3.17824	0.702712	2.43263	0.581431	4.83009	0.807269	6.7008	0.39516	3.26551	0.804977	3.08694	0.81178	6.73696
0.701842	2.43396	0.400795	3.16072	0.701029	2.43521	0.582333	4.79789	0.808018	6.65202	0.396156	3.24701	0.804148	3.09559	0.812772	6.6899
0.700165	2.43656	0.401729	3.14339	0.699357	2.43783	0.583219	4.76607	0.808794	6.60425	0.39714	3.22872	0.803319	3.1043	0.81375	6.64348
0.698498	2.43921	0.402655	3.12627	0.697695	2.44051	0.584089	4.73465	0.809595	6.55747	0.398112	3.21062	0.802488	3.11307	0.814714	6.5977
0.696841	2.44192	0.403573	3.10935	0.696043	2.44324	0.584943	4.7036	0.810423	6.51164	0.399073	3.19273	0.801657	3.12191	0.815664	6.55254
0.695193	2.44468	0.404483	3.09264	0.694399	2.44603	0.585783	4.67292	0.811276	6.46674	0.400024	3.17504	0.800825	3.13081	0.8166	6.50799
0.693554	2.44749	0.405388	3.07612	0.692765	2.44886	0.586607	4.64261	0.812154	6.42275	0.400966	3.15755	0.79999	3.13977	0.817523	6.46404
0.691924	2.45035	0.406286	3.05981	0.691139	2.45175	0.587417	4.61266	0.813057	6.37964	0.401898	3.14026	0.799154	3.1488	0.818433	6.42066
0.690303	2.45326	0.407179	3.04371	0.689521	2.45468	0.588212	4.58306	0.813985	6.33739	0.402822	3.12318	0.798315	3.15789	0.819329	6.37786
0.688689	2.45622	0.408067	3.0278	0.687912	2.45767	0.588993	4.5538	0.814936	6.29597	0.403739	3.10629	0.797473	3.16703	0.820213	6.33561
0.687083	2.45923	0.408951	3.0121	0.686309	2.4607	0.58976	4.52489	0.815912	6.25537	0.404649	3.08962	0.796628	3.17624	0.821084	6.29392
0.685484	2.46228	0.409832	2.99661	0.684713	2.46377	0.590514	4.49631	0.81691	6.21556	0.405552	3.07314	0.795779	3.18551	0.821942	6.25276
0.683892	2.46538	0.41071	2.98131	0.683124	2.4669	0.591254	4.46806	0.817931	6.17653	0.406449	3.05687	0.794926	3.19483	0.822789	6.21213
0.682306	2.46853	0.411585	2.96622	0.681542	2.47007	0.591982	4.44014	0.818975	6.13824	0.407341	3.0408	0.794069	3.20422	0.823623	6.17202
0.680726	2.47172	0.412459	2.95133	0.679964	2.47328	0.592697	4.41254	0.82004	6.10068	0.408228	3.02493	0.793207	3.21365	0.824446	6.13241
0.679152	2.47495	0.413331	2.93664	0.678392	2.47653	0.593399	4.38525	0.821127	6.06383	0.409112	3.00927	0.792339	3.22314	0.825258	6.09331
0.677582	2.47823	0.414202	2.92215	0.676825	2.47983	0.59409	4.35828	0.822235	6.02768	0.409992	2.99381	0.791466	3.23269	0.82606	6.0547
0.676017	2.48154	0.415074	2.90787	0.675262	2.48316	0.59477	4.33161	0.823364	5.9922	0.410869	2.97855	0.790586	3.24229	0.82685	6.01657
0.674456	2.4849	0.415945	2.89378	0.673702	2.48654	0.595439	4.30525	0.824512	5.95737	0.411744	2.9635	0.7897	3.25193	0.827631	5.97892
0.672898	2.48829	0.416817	2.87989	0.672146	2.48994	0.596097	4.27919	0.82568	5.92319	0.412617	2.94864	0.788806	3.26163	0.828402	5.94174
