Sym0		Sym1		Sym2		Sym3		Asym1		Asym2		Asym3	
417  Points		418  Points		379  Points		233  Points		400  Points		368  Points		245  Points	
Freq (MHz)	Vph (m/ms)	Freq (MHz)	Vph (m/ms)	Freq (MHz)	Vph (m/ms)	Freq (MHz)	Vph (m/ms)	Freq (MHz)	Vph (m/ms)	Freq (MHz)	Vph (m/ms)	Freq (MHz)	Vph (m/ms)
1.00005	2.44016	1.00074	2.44015	0.433029	717.264	0.866024	1935.37	0.216507	2551.28	1.0011	2.77482	0.727363	2523.49
0.997635	2.44021	0.998328	2.44019	0.433129	270.748	0.866015	599.943	0.216549	200.344	0.999789	2.77886	0.727411	566.404
0.99523	2.44027	0.995921	2.44025	0.433318	166.932	0.865996	354.986	0.216664	104.32	0.998485	2.78294	0.727519	319.047
0.992831	2.44035	0.99352	2.44032	0.433596	120.718	0.865967	252.061	0.21685	70.5678	0.997187	2.78706	0.727687	222.106
0.990438	2.44044	0.991125	2.44041	0.43396	94.5896	0.865929	195.4	0.217109	53.3573	0.995896	2.79122	0.727914	170.379
0.988052	2.44055	0.988737	2.44052	0.434409	77.7974	0.86588	159.533	0.217438	42.9297	0.99461	2.79542	0.7282	138.221
0.985673	2.44068	0.986356	2.44064	0.434939	66.1015	0.865823	134.787	0.217838	35.9409	0.99333	2.79966	0.728543	116.299
0.9833	2.44082	0.983981	2.44078	0.435548	57.4913	0.865755	116.684	0.218307	30.9347	0.992055	2.80394	0.728942	100.4
0.980935	2.44099	0.981614	2.44094	0.436233	50.8909	0.865678	102.865	0.218845	27.1754	0.990787	2.80826	0.729396	88.3428
0.978576	2.44117	0.979253	2.44111	0.43699	45.6723	0.865592	91.9699	0.219451	24.2512	0.989523	2.81262	0.729903	78.8875
0.976225	2.44137	0.9769	2.44131	0.437815	41.4442	0.865497	83.1592	0.220122	21.9134	0.988266	2.81702	0.730462	71.2752
0.97388	2.44159	0.974554	2.44152	0.438706	37.9504	0.865392	75.8867	0.220859	20.0033	0.987013	2.82146	0.731071	65.0158
0.971544	2.44183	0.972215	2.44176	0.439659	35.0158	0.865278	69.7819	0.22166	18.4146	0.985766	2.82594	0.731728	59.7791
0.969214	2.44209	0.969883	2.44201	0.44067	32.5169	0.865156	64.5842	0.222522	17.0735	0.984524	2.83046	0.732431	55.334
0.966892	2.44237	0.967559	2.44228	0.441735	30.3639	0.865024	60.1053	0.223446	15.9272	0.983288	2.83503	0.733179	51.5142
0.964578	2.44266	0.965242	2.44258	0.442853	28.4901	0.864884	56.2057	0.224428	14.9368	0.982056	2.83963	0.73397	48.1968
0.962271	2.44299	0.962934	2.44289	0.444018	26.8449	0.864736	52.7798	0.225468	14.0731	0.980829	2.84427	0.734802	45.2893
0.959973	2.44333	0.960633	2.44323	0.445229	25.3892	0.864579	49.746	0.226563	13.3137	0.979607	2.84896	0.735672	42.7204
0.957682	2.44369	0.958339	2.44359	0.446482	24.0923	0.864415	47.0407	0.227713	12.6414	0.97839	2.85368	0.736581	40.4344
0.955399	2.44408	0.956054	2.44397	0.447776	22.9297	0.864242	44.6131	0.228915	12.0422	0.977177	2.85845	0.737524	38.3874
0.953124	2.44449	0.953777	2.44437	0.449106	21.8818	0.864062	42.4226	0.230167	11.5053	0.975969	2.86326	0.738502	36.5437
0.950857	2.44492	0.951508	2.44479	0.450472	20.9325	0.863874	40.436	0.231468	11.0216	0.974766	2.86811	0.739512	34.8748
0.948599	2.44538	0.949247	2.44524	0.45187	20.0686	0.863679	38.6261	0.232817	10.5838	0.973567	2.873	0.740553	33.3571
0.946349	2.44585	0.946995	2.44571	0.4533	19.2793	0.863477	36.9702	0.234211	10.186	0.972373	2.87794	0.741623	31.9709
0.944107	2.44636	0.944751	2.44621	0.454757	18.5552	0.863269	35.4495	0.235648	9.82299	0.971182	2.88291	0.742721	30.7001
0.941873	2.44689	0.942515	2.44673	0.456242	17.8888	0.863053	34.0481	0.237127	9.49062	0.969996	2.88793	0.743845	29.5307
0.939649	2.44744	0.940287	2.44728	0.457752	17.2734	0.862832	32.7524	0.238647	9.18528	0.968814	2.89299	0.744994	28.4513
0.937432	2.44802	0.938068	2.44785	0.459286	16.7035	0.862604	31.5508	0.240206	8.90392	0.967636	2.89809	0.746167	27.4519
0.935224	2.44862	0.935858	2.44844	0.460842	16.1742	0.86237	30.4336	0.241801	8.64393	0.966461	2.90323	0.747362	26.5239
0.933025	2.44925	0.933656	2.44907	0.462419	15.6814	0.862131	29.392	0.243432	8.40304	0.965291	2.90842	0.748579	25.6601
0.930835	2.44991	0.931463	2.44971	0.464016	15.2214	0.861887	28.4187	0.244881	8.20717	0.964124	2.91365	0.749817	24.8539
0.928653	2.45059	0.929279	2.45039	0.465631	14.7911	0.861638	27.5071	0.246136	8.04962	0.962961	2.91892	0.751073	24.0999
0.92648	2.4513	0.927104	2.45109	0.467263	14.3877	0.861384	26.6515	0.247188	7.9254	0.961801	2.92423	0.752349	23.3932
0.924315	2.45203	0.924937	2.45182	0.468911	14.0089	0.861126	25.847	0.248027	7.83085	0.960644	2.92959	0.753641	22.7295
0.92216	2.45279	0.922778	2.45257	0.470575	13.6523	0.860863	25.0891	0.248648	7.76328	0.959491	2.93499	0.75495	22.1049
0.920013	2.45358	0.920629	2.45335	0.472254	13.3162	0.860597	24.3738	0.249048	7.72089	0.958341	2.94043	0.756274	21.5162
0.917875	2.4544	0.918489	2.45416	0.473945	12.9988	0.860327	23.6976	0.249626	7.66106	0.957194	2.94591	0.757614	20.9604
0.915746	2.45525	0.916357	2.455	0.47565	12.6987	0.860054	23.0575	0.250257	7.59749	0.95605	2.95144	0.758967	20.4347
0.913625	2.45612	0.914234	2.45587	0.477366	12.4144	0.859778	22.4506	0.251121	7.51338	0.954909	2.95701	0.760334	19.9368
0.911514	2.45702	0.91212	2.45676	0.479094	12.1447	0.859499	21.8744	0.252223	7.4107	0.953771	2.96262	0.761714	19.4647
0.909411	2.45795	0.910015	2.45768	0.480832	11.8886	0.859218	21.3267	0.25357	7.29174	0.952635	2.96827	0.763105	19.0162
0.907317	2.45891	0.907918	2.45863	0.482579	11.6451	0.858935	20.8053	0.255168	7.159	0.951501	2.97397	0.764508	18.5898
0.905231	2.4599	0.90583	2.45962	0.484337	11.4131	0.85865	20.3084	0.257024	7.01506	0.95037	2.97971	0.765922	18.1837
0.903155	2.46092	0.903751	2.46062	0.486102	11.1921	0.858363	19.8344	0.258904	6.87936	0.949241	2.9855	0.767346	17.7967
0.901087	2.46197	0.901681	2.46166	0.487876	10.9811	0.858076	19.3817	0.260807	6.75124	0.948114	2.99132	0.768779	17.4274
0.899028	2.46304	0.899619	2.46273	0.489658	10.7795	0.857788	18.9489	0.262731	6.6301	0.946989	2.99719	0.770222	17.0746
0.896977	2.46415	0.897565	2.46383	0.491446	10.5868	0.857499	18.5347	0.264675	6.51539	0.945866	3.0031	0.771673	16.7372
0.894935	2.46528	0.895521	2.46495	0.493241	10.4022	0.857211	18.138	0.266638	6.40664	0.944744	3.00906	0.773132	16.4142
0.892901	2.46645	0.893485	2.46611	0.495042	10.2254	0.856922	17.7576	0.26862	6.30339	0.943624	3.01506	0.774599	16.1048
0.890875	2.46764	0.891457	2.4673	0.496848	10.0559	0.856634	17.3927	0.270618	6.20525	0.942506	3.0211	0.776073	15.8081
0.888858	2.46887	0.889437	2.46851	0.49866	9.89309	0.856347	17.0422	0.272632	6.11186	0.941388	3.02718	0.777553	15.5233
0.88685	2.47012	0.887426	2.46976	0.500477	9.73672	0.856061	16.7054	0.274662	6.02287	0.940272	3.0333	0.77904	15.2497
0.884849	2.47141	0.885423	2.47103	0.502297	9.58638	0.855776	16.3814	0.276706	5.938	0.939156	3.03947	0.780533	14.9868
0.882856	2.47272	0.883428	2.47234	0.504122	9.44173	0.855494	16.0696	0.278763	5.85696	0.938041	3.04568	0.782031	14.7338
0.880872	2.47406	0.881442	2.47367	0.50595	9.30244	0.855213	15.7693	0.280833	5.7795	0.936927	3.05193	0.783535	14.4902
0.878895	2.47544	0.879463	2.47504	0.507782	9.16821	0.854935	15.4799	0.282914	5.70539	0.935813	3.05822	0.785043	14.2555
0.876926	2.47684	0.877492	2.47643	0.509616	9.03878	0.854659	15.2008	0.285007	5.63441	0.934699	3.06456	0.786555	14.0292
0.874965	2.47827	0.875528	2.47786	0.511452	8.91388	0.854387	14.9314	0.287109	5.56637	0.933585	3.07094	0.788072	13.8109
0.873011	2.47973	0.873572	2.47931	0.513291	8.79328	0.854118	14.6713	0.289221	5.50109	0.932471	3.07735	0.789592	13.6001
0.871065	2.48123	0.871624	2.48079	0.515131	8.67676	0.853853	14.4201	0.291342	5.43839	0.931356	3.08381	0.791116	13.3966
0.869126	2.48275	0.869683	2.48231	0.516973	8.5641	0.853592	14.1772	0.29347	5.37813	0.930241	3.09031	0.792642	13.1998
0.867195	2.4843	0.867749	2.48385	0.518579	8.46893	0.853336	13.9423	0.295606	5.32016	0.929125	3.09685	0.794172	13.0095
0.86527	2.48588	0.865822	2.48542	0.519949	8.38992	0.853084	13.715	0.297749	5.26435	0.928008	3.10343	0.795703	12.8253
0.863352	2.48748	0.863903	2.48702	0.521081	8.326	0.852837	13.4949	0.299897	5.21058	0.92689	3.11005	0.797237	12.647
0.861441	2.48912	0.86199	2.48865	0.521977	8.27633	0.852595	13.2817	0.302051	5.15872	0.925771	3.11671	0.798773	12.4742
0.859536	2.49079	0.860083	2.4903	0.522636	8.2403	0.852359	13.0752	0.304209	5.10868	0.92465	3.12341	0.800309	12.3068
0.857638	2.49248	0.858183	2.49199	0.523057	8.21745	0.85213	12.875	0.306371	5.06035	0.923526	3.13015	0.801848	12.1445
0.855746	2.4942	0.856289	2.4937	0.523663	8.18489	0.851906	12.6807	0.308537	5.01365	0.922401	3.13693	0.803387	11.9869
0.85386	2.49595	0.854402	2.49544	0.524322	8.14987	0.85169	12.4923	0.310706	4.96847	0.921274	3.14374	0.804926	11.834
0.85198	2.49773	0.85252	2.49721	0.525218	8.10286	0.85148	12.3094	0.312877	4.92475	0.920144	3.15059	0.806466	11.6856
0.850106	2.49953	0.850644	2.49901	0.52635	8.0444	0.851277	12.1318	0.31505	4.88241	0.919011	3.15748	0.808006	11.5413
0.848237	2.50136	0.848774	2.50083	0.52772	7.97515	0.851083	11.9593	0.317224	4.84137	0.917874	3.16441	0.809546	11.4011
0.846373	2.50322	0.846909	2.50268	0.529326	7.89585	0.850896	11.7916	0.319399	4.80157	0.916735	3.17137	0.811085	11.2648
0.844515	2.5051	0.845049	2.50456	0.531168	7.80733	0.850717	11.6286	0.321574	4.76295	0.915592	3.17836	0.812624	11.1321
0.842661	2.50701	0.843193	2.50646	0.533009	7.72134	0.850547	11.4701	0.323749	4.72545	0.914445	3.1854	0.814161	11.0031
0.840812	2.50894	0.841343	2.50838	0.534848	7.63778	0.850386	11.316	0.325922	4.68901	0.913293	3.19246	0.815698	10.8774
0.838967	2.5109	0.839497	2.51033	0.536685	7.55654	0.850234	11.1659	0.328095	4.65358	0.912138	3.19956	0.817232	10.755
0.837126	2.51288	0.837655	2.51231	0.53852	7.47752	0.850092	11.0199	0.330265	4.61911	0.910977	3.20669	0.818765	10.6358
0.835289	2.51488	0.835817	2.51431	0.540353	7.40061	0.849959	10.8778	0.332433	4.58555	0.909812	3.21386	0.820296	10.5196
0.833455	2.51691	0.833982	2.51633	0.542183	7.32574	0.849837	10.7393	0.334599	4.55287	0.908641	3.22106	0.821825	10.4063
0.831625	2.51896	0.832151	2.51837	0.54401	7.25282	0.849725	10.6044	0.33676	4.52101	0.907464	3.22828	0.823351	10.2957
0.829798	2.52103	0.830323	2.52043	0.545834	7.18177	0.849624	10.473	0.338919	4.48995	0.906282	3.23554	0.824874	10.1879
0.827973	2.52312	0.828497	2.52252	0.547655	7.11251	0.849534	10.3449	0.341073	4.45964	0.905093	3.24283	0.826394	10.0826
0.826151	2.52523	0.826674	2.52463	0.549471	7.04497	0.849455	10.2199	0.343222	4.43005	0.903897	3.25014	0.827911	9.97985
0.82433	2.52737	0.824854	2.52675	0.551284	6.97909	0.849389	10.0981	0.345366	4.40114	0.902695	3.25749	0.829424	9.87948
0.822512	2.52951	0.823034	2.52889	0.553092	6.91479	0.849334	9.97931	0.347504	4.37288	0.901485	3.26486	0.830933	9.78141
0.820694	2.53168	0.821217	2.53105	0.554895	6.85201	0.849291	9.86338	0.349637	4.34526	0.900268	3.27225	0.832439	9.68557
0.818878	2.53386	0.8194	2.53323	0.556694	6.7907	0.849261	9.75024	0.351762	4.31822	0.899043	3.27967	0.83394	9.59188
0.817062	2.53606	0.817584	2.53542	0.558488	6.7308	0.849244	9.63982	0.353881	4.29176	0.89781	3.28712	0.835437	9.50026
0.815246	2.53827	0.815768	2.53763	0.560276	6.67226	0.849241	9.53201	0.355993	4.26584	0.896568	3.29458	0.836929	9.41064
0.81343	2.54049	0.813952	2.53985	0.562058	6.61502	0.849251	9.42673	0.358097	4.24044	0.895317	3.30207	0.838416	9.32294
0.811613	2.54273	0.812135	2.54208	0.563835	6.55905	0.849274	9.32391	0.360192	4.21553	0.894057	3.30958	0.839898	9.23712
0.809795	2.54497	0.810318	2.54433	0.565605	6.50428	0.849312	9.22346	0.362279	4.1911	0.892787	3.31711	0.841374	9.15309
0.807976	2.54723	0.808499	2.54658	0.567369	6.45068	0.849364	9.12532	0.364357	4.16712	0.891507	3.32466	0.842845	9.0708
0.806154	2.54949	0.806678	2.54884	0.569127	6.3982	0.849421	9.04163	0.366426	4.14358	0.890217	3.33223	0.844122	9.00047
0.80433	2.55176	0.804855	2.55111	0.570877	6.34681	0.849479	8.97158	0.368484	4.12045	0.888917	3.33981	0.845206	8.94149
0.802503	2.55404	0.803029	2.55338	0.57262	6.29647	0.849533	8.91455	0.370533	4.09772	0.887605	3.34741	0.846101	8.89339
0.800673	2.55632	0.801199	2.55566	0.574356	6.24714	0.84958	8.87001	0.372571	4.07536	0.886282	3.35502	0.846806	8.85577
0.798838	2.5586	0.799366	2.55794	0.576084	6.19878	0.849617	8.83758	0.374597	4.05337	0.884948	3.36265	0.847324	8.82835
0.797	2.56087	0.797529	2.56022	0.577804	6.15136	0.849642	8.81695	0.376613	4.03173	0.883601	3.37029	0.847655	8.8109
0.795156	2.56315	0.795686	2.5625	0.579516	6.10485	0.849679	8.78749	0.378616	4.01041	0.882242	3.37794	0.84813	8.78595
0.793306	2.56543	0.793839	2.56477	0.58122	6.05922	0.84972	8.75571	0.380608	3.98942	0.880871	3.3856	0.848646	8.75901
0.791451	2.5677	0.791985	2.56705	0.582915	6.01444	0.849781	8.7129	0.382587	3.96873	0.879487	3.39327	0.849346	8.72268
0.789589	2.56996	0.790125	2.56931	0.584601	5.97048	0.849862	8.65941	0.384554	3.94833	0.878089	3.40095	0.850228	8.67722
0.787719	2.57222	0.788258	2.57157	0.586278	5.92731	0.849969	8.5957	0.386507	3.92822	0.876678	3.40863	0.851293	8.62297
0.785842	2.57446	0.786383	2.57382	0.587946	5.88491	0.850106	8.52227	0.388447	3.90837	0.875253	3.41632	0.852536	8.5603
0.783957	2.57669	0.7845	2.57605	0.589604	5.84325	0.850278	8.43973	0.390373	3.88878	0.873814	3.42402	0.853955	8.48965
0.782063	2.57891	0.782609	2.57827	0.591252	5.80231	0.850467	8.35897	0.392285	3.86943	0.87236	3.43171	0.855367	8.42031
0.78016	2.58111	0.780708	2.58048	0.59289	5.76207	0.850673	8.27993	0.394183	3.85032	0.870892	3.43942	0.856772	8.35224
0.778247	2.5833	0.778798	2.58267	0.594518	5.7225	0.850896	8.20259	0.396066	3.83144	0.869409	3.44712	0.858168	8.2854
0.776324	2.58546	0.776878	2.58484	0.596136	5.68358	0.851137	8.12688	0.397934	3.81278	0.867911	3.45482	0.859556	8.21976
0.77439	2.5876	0.774947	2.58699	0.597743	5.64529	0.851396	8.05276	0.399787	3.79433	0.866397	3.46252	0.860936	8.15528
0.772445	2.58972	0.773006	2.58912	0.599339	5.60761	0.851672	7.9802	0.401625	3.77607	0.864868	3.47023	0.862308	8.09192
0.770488	2.59182	0.771052	2.59122	0.600924	5.57053	0.851967	7.90915	0.403448	3.75801	0.863323	3.47793	0.86367	8.02966
0.76852	2.59389	0.769087	2.59329	0.602498	5.53402	0.85228	7.83956	0.405255	3.74014	0.861762	3.48563	0.865024	7.96845
0.766539	2.59593	0.767109	2.59534	0.60406	5.49808	0.852612	7.77142	0.407045	3.72245	0.860185	3.49332	0.866368	7.90828
0.764545	2.59794	0.765119	2.59736	0.605611	5.46267	0.852963	7.70467	0.40882	3.70494	0.858592	3.50101	0.867704	7.84911
0.762538	2.59992	0.763116	2.59935	0.60715	5.42779	0.853332	7.63927	0.410579	3.68759	0.856983	3.5087	0.86903	7.79091
0.760517	2.60186	0.7611	2.60131	0.608677	5.39341	0.853721	7.57521	0.412321	3.6704	0.855357	3.51638	0.870346	7.73365
0.758484	2.60378	0.75907	2.60323	0.610192	5.35954	0.854129	7.51244	0.414047	3.65337	0.853714	3.52406	0.871653	7.67732
0.756436	2.60566	0.757026	2.60512	0.611695	5.32614	0.854557	7.45093	0.415756	3.63649	0.852055	3.53173	0.87295	7.62188
0.754374	2.6075	0.754968	2.60698	0.613185	5.29321	0.855005	7.39064	0.417449	3.61976	0.850379	3.5394	0.874237	7.5673
0.752299	2.60931	0.752897	2.6088	0.614663	5.26074	0.855472	7.33156	0.419125	3.60318	0.848686	3.54706	0.875514	7.51358
0.750209	2.61108	0.750811	2.61058	0.616129	5.22871	0.855959	7.27365	0.420784	3.58673	0.846977	3.55471	0.87678	7.46068
0.748105	2.61282	0.748712	2.61233	0.617581	5.19711	0.856467	7.21688	0.422427	3.57042	0.845251	3.56236	0.878037	7.40857
0.745987	2.61452	0.746598	2.61403	0.619021	5.16592	0.856995	7.16122	0.424053	3.55425	0.843509	3.57	0.879282	7.35726
0.743855	2.61618	0.74447	2.6157	0.620448	5.13514	0.857543	7.10666	0.425663	3.5382	0.84175	3.57764	0.880518	7.3067
0.741709	2.6178	0.742327	2.61734	0.621861	5.10476	0.858111	7.05315	0.427256	3.52228	0.839974	3.58527	0.881742	7.25688
0.739549	2.61938	0.740171	2.61893	0.623262	5.07477	0.858701	7.00068	0.428833	3.50649	0.838182	3.59289	0.882956	7.20778
0.737375	2.62093	0.738001	2.62049	0.624649	5.04515	0.859311	6.94922	0.430393	3.49081	0.836373	3.60051	0.884159	7.15939
0.735187	2.62244	0.735818	2.62201	0.626023	5.01589	0.859941	6.89876	0.431937	3.47526	0.834549	3.60813	0.885352	7.11169
0.732986	2.62391	0.733621	2.62349	0.627384	4.987	0.860593	6.84925	0.433465	3.45983	0.832708	3.61574	0.886533	7.06466
0.730772	2.62535	0.73141	2.62494	0.628731	4.95845	0.861265	6.80069	0.434977	3.44452	0.830852	3.62335	0.887704	7.01828
0.728545	2.62674	0.729187	2.62635	0.630065	4.93024	0.861958	6.75306	0.436474	3.42932	0.82898	3.63096	0.888863	6.97254
0.726305	2.62811	0.72695	2.62772	0.631386	4.90237	0.862672	6.70632	0.437955	3.41424	0.827092	3.63857	0.890012	6.92743
0.724053	2.62943	0.724702	2.62905	0.632693	4.87482	0.863407	6.66046	0.439421	3.39927	0.82519	3.64617	0.891149	6.88292
0.721789	2.63072	0.722441	2.63036	0.633986	4.84758	0.864163	6.61546	0.440871	3.38442	0.823272	3.65378	0.892276	6.83901
0.719512	2.63198	0.720168	2.63162	0.635267	4.82066	0.86494	6.5713	0.442307	3.36967	0.82134	3.66139	0.893391	6.79568
0.717224	2.63321	0.717883	2.63286	0.636534	4.79404	0.865737	6.52796	0.443729	3.35505	0.819393	3.669	0.894496	6.75292
0.714926	2.6344	0.715588	2.63406	0.637787	4.76771	0.866556	6.48543	0.445136	3.34053	0.817432	3.67662	0.895589	6.71071
0.712616	2.63556	0.713281	2.63523	0.639027	4.74168	0.867395	6.44367	0.44653	3.32613	0.815458	3.68424	0.896672	6.66905
0.710295	2.63669	0.710963	2.63637	0.640254	4.71593	0.868255	6.40269	0.44791	3.31183	0.813469	3.69187	0.897744	6.62793
0.707965	2.6378	0.708636	2.63748	0.641468	4.69046	0.869136	6.36245	0.449277	3.29766	0.811468	3.69951	0.898805	6.58732
0.705624	2.63887	0.706298	2.63856	0.642669	4.66526	0.870037	6.32294	0.450631	3.28359	0.809454	3.70716	0.899855	6.54723
0.703274	2.63991	0.703951	2.63962	0.643856	4.64033	0.870958	6.28415	0.451973	3.26964	0.807427	3.71483	0.900895	6.50763
0.700915	2.64093	0.701594	2.64064	0.645031	4.61566	0.8719	6.24606	0.453302	3.25579	0.805388	3.72251	0.901925	6.46853
0.698547	2.64192	0.699228	2.64164	0.646193	4.59125	0.872863	6.20866	0.45462	3.24207	0.803338	3.7302	0.902943	6.4299
0.69617	2.64289	0.696854	2.64261	0.647342	4.5671	0.873845	6.17192	0.455927	3.22845	0.801276	3.73791	0.903952	6.39175
0.693785	2.64383	0.694471	2.64356	0.648478	4.54319	0.874847	6.13583	0.457222	3.21495	0.799203	3.74565	0.904951	6.35406
0.691392	2.64475	0.692081	2.64449	0.649603	4.51953	0.875869	6.10038	0.458508	3.20157	0.797119	3.7534	0.905939	6.31682
0.688991	2.64565	0.689682	2.64539	0.650714	4.49611	0.876911	6.06556	0.459783	3.1883	0.795025	3.76118	0.906918	6.28003
0.686583	2.64652	0.687276	2.64627	0.651814	4.47292	0.877972	6.03134	0.461048	3.17514	0.792922	3.76899	0.907887	6.24368
0.684168	2.64738	0.684863	2.64713	0.652902	4.44997	0.879052	5.99773	0.462305	3.16211	0.790809	3.77683	0.908846	6.20776
0.681746	2.64821	0.682443	2.64797	0.653978	4.42725	0.880151	5.96469	0.463552	3.14918	0.788687	3.7847	0.909797	6.17226
0.679317	2.64903	0.680016	2.64879	0.655042	4.40476	0.881269	5.93223	0.464792	3.13638	0.786557	3.7926	0.910738	6.13717
0.676882	2.64982	0.677583	2.6496	0.656095	4.38248	0.882406	5.90032	0.466023	3.12369	0.784418	3.80055	0.91167	6.10249
0.674441	2.6506	0.675143	2.65038	0.657137	4.36043	0.883561	5.86896	0.467247	3.11113	0.782272	3.80853	0.912594	6.06822
0.671994	2.65137	0.672698	2.65115	0.658168	4.3386	0.884734	5.83812	0.468464	3.09868	0.780119	3.81655	0.913509	6.03434
0.669542	2.65211	0.670248	2.6519	0.659188	4.31698	0.885925	5.80781	0.469674	3.08635	0.777959	3.82462	0.914416	6.00085
0.667084	2.65284	0.667791	2.65263	0.660197	4.29557	0.887134	5.77801	0.470878	3.07414	0.775792	3.83273	0.915314	5.96774
0.664621	2.65356	0.66533	2.65335	0.661196	4.27437	0.88836	5.7487	0.472076	3.06205	0.773619	3.8409	0.916206	5.93501
0.662153	2.65426	0.662863	2.65406	0.662185	4.25337	0.889603	5.71988	0.473269	3.05009	0.771442	3.84912	0.917089	5.90265
0.659681	2.65495	0.660392	2.65475	0.663164	4.23258	0.890863	5.69153	0.474457	3.03824	0.769259	3.8574	0.917966	5.87065
0.657204	2.65563	0.657916	2.65543	0.664134	4.212	0.892139	5.66364	0.475641	3.02652	0.767071	3.86574	0.918836	5.83902
0.654722	2.65629	0.655436	2.6561	0.665094	4.19161	0.893432	5.63621	0.476821	3.01492	0.764879	3.87414	0.919699	5.80775
0.652237	2.65694	0.652952	2.65676	0.666045	4.17142	0.89474	5.60922	0.477997	3.00344	0.762684	3.88261	0.920555	5.77682
0.649747	2.65758	0.650463	2.6574	0.666987	4.15142	0.896064	5.58266	0.47917	2.99208	0.760485	3.89115	0.921406	5.74625
