Sym0		Asym0		Sym1		Sym2		Sym3		Sym4		Asym1		Asym2		Asym3		Asym4	
420  Points		526  Points		420  Points		402  Points		349  Points		249  Points		451  Points		398  Points		340  Points		199  Points	
Freq (MHz)	Vgr (m/ms)	Freq (MHz)	Vgr (m/ms)	Freq (MHz)	Vgr (m/ms)	Freq (MHz)	Vgr (m/ms)	Freq (MHz)	Vgr (m/ms)	Freq (MHz)	Vgr (m/ms)	Freq (MHz)	Vgr (m/ms)	Freq (MHz)	Vgr (m/ms)	Freq (MHz)	Vgr (m/ms)	Freq (MHz)	Vgr (m/ms)
0.279514	0.0180672	0.000236786	0.224946	0.279511	0.0136565	0.455763	0.0155554	0.559018	0.0105885	0.838526	0.00568574	0.139783	0.103212	0.419264	0.0113986	0.698772	0.00565035	0.911518	0.003405
0.279531	0.0241717	0.000446367	0.259887	0.279523	0.0198177	0.455778	0.0210463	0.559028	0.0168376	0.838531	0.00886742	0.139879	0.13913	0.419274	0.017822	0.698777	0.00901622	0.911521	0.00599311
0.279559	0.0364794	0.000721058	0.329336	0.279548	0.0321491	0.455802	0.0320257	0.559049	0.029286	0.838542	0.0152631	0.140043	0.210701	0.419297	0.0306467	0.698788	0.0157447	0.911529	0.011194
0.279599	0.04879	0.00106005	0.397847	0.279583	0.0444339	0.455837	0.0429984	0.559082	0.0417317	0.83856	0.0216823	0.140272	0.281701	0.419331	0.0434056	0.698806	0.0224633	0.911542	0.0163955
0.27965	0.0610334	0.0014624	0.46529	0.27963	0.0566988	0.455882	0.0539573	0.559127	0.0541718	0.838583	0.0280754	0.140567	0.351923	0.419378	0.0561793	0.69883	0.0291624	0.911559	0.0215983
0.279712	0.0733619	0.00192706	0.531547	0.279689	0.0689973	0.455938	0.0648889	0.559183	0.0666009	0.838612	0.0344896	0.140928	0.421175	0.419436	0.0689824	0.698861	0.0358954	0.911582	0.0268038
0.279786	0.0856411	0.00245288	0.596386	0.279759	0.0812895	0.456003	0.0758389	0.559251	0.079008	0.838647	0.0408726	0.141352	0.489367	0.419506	0.0817714	0.698897	0.0426231	0.911609	0.0320146
0.279872	0.0978947	0.00303836	0.659706	0.27984	0.0935692	0.456079	0.0868259	0.55933	0.0914442	0.838688	0.0472665	0.14184	0.556245	0.419588	0.094532	0.69894	0.0493402	0.911641	0.037236
0.279969	0.11017	0.00368217	0.721454	0.279933	0.105824	0.456165	0.0978135	0.559421	0.103865	0.838735	0.0536823	0.142389	0.621665	0.419682	0.107309	0.698989	0.0560363	0.911679	0.0424053
0.280077	0.122417	0.00438272	0.781523	0.280038	0.118102	0.456261	0.108729	0.559524	0.116257	0.838788	0.0600687	0.142998	0.685635	0.419788	0.120045	0.699044	0.0627633	0.91172	0.0476169
0.280197	0.13468	0.00513845	0.83977	0.280153	0.130353	0.456368	0.119647	0.559638	0.128661	0.838847	0.0664693	0.143666	0.74795	0.419906	0.132774	0.699106	0.0694791	0.911767	0.05284
0.280328	0.146899	0.00594753	0.896206	0.28028	0.142551	0.456484	0.130644	0.559764	0.141019	0.838912	0.0728253	0.144392	0.808494	0.420036	0.145561	0.699174	0.0761723	0.911819	0.0580127
0.280471	0.159108	0.00680844	0.950851	0.280419	0.154789	0.456611	0.141578	0.559901	0.153431	0.838983	0.0792383	0.145173	0.867325	0.420177	0.158244	0.699248	0.0828938	0.911875	0.0632313
0.280625	0.171293	0.00771934	1.00352	0.280569	0.167034	0.456748	0.152459	0.560049	0.165802	0.83906	0.0856191	0.146008	0.924342	0.420331	0.17094	0.699328	0.0895985	0.911937	0.0684682
0.28079	0.183505	0.00867839	1.0543	0.28073	0.179218	0.456895	0.163382	0.56021	0.178094	0.839142	0.0920087	0.146778	0.972509	0.420496	0.18366	0.699415	0.0963428	0.912003	0.0736685
0.280967	0.195698	0.00968392	1.1032	0.280903	0.191355	0.457053	0.174313	0.560381	0.190446	0.839231	0.0984157	0.147465	1.0125	0.420673	0.196356	0.699508	0.10302	0.912074	0.0788689
0.281155	0.207852	0.0107341	1.15017	0.281087	0.203544	0.45722	0.185191	0.560565	0.202773	0.839326	0.104784	0.148054	1.04472	0.420862	0.209005	0.699607	0.109709	0.91215	0.0840696
0.281354	0.220003	0.0118271	1.19533	0.281282	0.21569	0.457398	0.196106	0.560759	0.215048	0.839426	0.11115	0.148533	1.06966	0.421062	0.22163	0.699712	0.116422	0.912231	0.0892707
0.281565	0.232073	0.0129614	1.23862	0.281489	0.227824	0.457585	0.207024	0.560965	0.227293	0.839533	0.117509	0.148892	1.08764	0.421275	0.234284	0.699824	0.123111	0.912316	0.0944728
0.281786	0.244201	0.0141352	1.28008	0.281707	0.239934	0.457783	0.217872	0.561183	0.239552	0.839645	0.123927	0.149125	1.09911	0.421499	0.246921	0.699942	0.129822	0.912407	0.0996768
0.28202	0.256298	0.0153467	1.3198	0.281936	0.251996	0.457991	0.228729	0.561412	0.25184	0.839764	0.130319	0.149464	1.11548	0.421735	0.259523	0.700066	0.136507	0.912502	0.104885
0.282264	0.268334	0.0165945	1.35777	0.282176	0.264108	0.45821	0.239603	0.561652	0.264036	0.839888	0.136658	0.149838	1.13283	0.421983	0.272057	0.700196	0.143213	0.912602	0.1101
0.28252	0.280395	0.0178768	1.3941	0.282428	0.276174	0.458438	0.250438	0.561904	0.276198	0.840018	0.143036	0.150356	1.1561	0.422242	0.2846	0.700333	0.149884	0.912707	0.11533
0.282786	0.292432	0.0191922	1.42881	0.282691	0.288148	0.458676	0.261268	0.562167	0.288363	0.840155	0.14942	0.151026	1.18494	0.422513	0.297161	0.700475	0.156563	0.912817	0.120518
0.283065	0.30442	0.0205392	1.46198	0.282965	0.300158	0.458925	0.272088	0.562441	0.300536	0.840297	0.155744	0.151858	1.21882	0.422796	0.309686	0.700624	0.163255	0.912932	0.125693
0.283354	0.316385	0.0219164	1.4936	0.28325	0.312166	0.459183	0.282888	0.562727	0.31265	0.840445	0.162093	0.152863	1.25729	0.42309	0.322138	0.70078	0.169901	0.913051	0.130916
0.283654	0.328304	0.0233224	1.52381	0.283547	0.324096	0.459452	0.293722	0.563024	0.324719	0.840599	0.168491	0.154055	1.29977	0.423396	0.334592	0.700941	0.176601	0.913176	0.136162
0.283965	0.340202	0.0247559	1.55266	0.283854	0.336018	0.459731	0.304477	0.563332	0.336772	0.840759	0.174841	0.155285	1.34053	0.423713	0.347048	0.701109	0.183264	0.913305	0.14138
0.284288	0.352134	0.0262156	1.58012	0.284173	0.347924	0.460019	0.315221	0.563651	0.348793	0.840925	0.181171	0.156553	1.37955	0.424043	0.359436	0.701282	0.189923	0.913439	0.146542
0.284622	0.363986	0.0277003	1.60632	0.284459	0.358252	0.460318	0.326014	0.563982	0.360823	0.841097	0.187531	0.157856	1.41693	0.424383	0.371834	0.701463	0.196577	0.913578	0.15174
0.284966	0.375825	0.0292088	1.63133	0.28471	0.367052	0.460627	0.336761	0.564323	0.372799	0.841274	0.19388	0.159193	1.45268	0.424735	0.384179	0.701649	0.203221	0.913722	0.157009
0.285322	0.387637	0.03074	1.6552	0.284923	0.374363	0.460945	0.347488	0.564676	0.384739	0.841458	0.200205	0.160563	1.48686	0.425099	0.396491	0.701841	0.209915	0.913871	0.1622
0.285689	0.399397	0.0322931	1.67796	0.285093	0.380084	0.461274	0.358176	0.56504	0.396681	0.841647	0.206557	0.161963	1.51954	0.425474	0.408811	0.70204	0.216566	0.914024	0.167383
0.286066	0.411124	0.0338667	1.69961	0.28522	0.384411	0.461613	0.368859	0.565416	0.408553	0.841843	0.212887	0.163394	1.55076	0.425861	0.421072	0.702245	0.223202	0.914183	0.172621
0.286455	0.42286	0.0354601	1.72028	0.285303	0.387055	0.461962	0.379531	0.565802	0.420358	0.842044	0.219177	0.164853	1.58061	0.426259	0.433289	0.702456	0.22981	0.914346	0.177823
0.286854	0.43454	0.0370723	1.74002	0.285422	0.390775	0.46232	0.390182	0.566199	0.432177	0.842251	0.225531	0.166339	1.60912	0.426668	0.445493	0.702673	0.236434	0.914514	0.183028
0.287264	0.446182	0.0387024	1.75883	0.285552	0.395104	0.462689	0.400863	0.566607	0.443949	0.842464	0.231866	0.167852	1.6363	0.427089	0.457668	0.702896	0.24309	0.914687	0.188238
0.287686	0.457819	0.0403497	1.77677	0.285733	0.40085	0.463067	0.41146	0.567026	0.455702	0.842683	0.238165	0.169388	1.66231	0.427521	0.469786	0.703126	0.249737	0.914865	0.193457
0.288117	0.469374	0.0420132	1.79388	0.285964	0.407978	0.463455	0.422033	0.567456	0.467416	0.842908	0.244464	0.170949	1.68718	0.427964	0.481865	0.703362	0.256365	0.915047	0.198694
0.28856	0.480913	0.0436924	1.81024	0.286249	0.416705	0.463853	0.432631	0.567897	0.47905	0.843139	0.250762	0.172532	1.71089	0.428419	0.493938	0.703604	0.262958	0.915235	0.203896
0.289014	0.492418	0.0453864	1.82581	0.286592	0.4269	0.464261	0.443208	0.568349	0.490674	0.843375	0.25706	0.174137	1.73355	0.428885	0.505999	0.703852	0.26955	0.915427	0.209099
0.289478	0.503929	0.0470946	1.84069	0.286995	0.438572	0.464679	0.453742	0.568811	0.502277	0.843618	0.263357	0.175763	1.75521	0.429362	0.517963	0.704106	0.276144	0.915625	0.214305
0.289953	0.51538	0.0488163	1.85494	0.287409	0.450231	0.465107	0.464264	0.569285	0.513836	0.843866	0.269653	0.177408	1.77589	0.42985	0.529879	0.704366	0.28274	0.915827	0.219517
0.290438	0.526781	0.0505511	1.86849	0.287834	0.46181	0.465544	0.474759	0.569769	0.52531	0.84412	0.275945	0.179072	1.79568	0.430349	0.541845	0.704633	0.289339	0.916034	0.224741
0.290934	0.538158	0.052298	1.88144	0.28827	0.473386	0.465992	0.485204	0.570264	0.536757	0.84438	0.282231	0.180754	1.81462	0.430793	0.552211	0.704905	0.295947	0.916245	0.229915
0.291441	0.549486	0.0540569	1.89388	0.288716	0.484923	0.466449	0.495693	0.570769	0.548227	0.844646	0.288504	0.182453	1.83269	0.431179	0.56094	0.705184	0.302496	0.916462	0.235136
0.291958	0.56079	0.0558271	1.90573	0.289173	0.496405	0.466915	0.506124	0.571285	0.559595	0.844918	0.294752	0.184169	1.84993	0.431502	0.568248	0.705469	0.309076	0.916684	0.240379
0.292486	0.572045	0.057608	1.91704	0.289641	0.507895	0.46733	0.515142	0.571812	0.570904	0.845195	0.301021	0.1859	1.86646	0.43176	0.573999	0.70576	0.315645	0.91691	0.245591
0.293024	0.583276	0.0593993	1.92786	0.29012	0.519317	0.467689	0.522889	0.572349	0.582242	0.845479	0.307261	0.187647	1.88231	0.431952	0.57804	0.706057	0.322191	0.917141	0.250814
0.293573	0.594459	0.0612004	1.93823	0.290609	0.530704	0.46799	0.529265	0.572897	0.593494	0.845768	0.313516	0.189408	1.89748	0.432075	0.580769	0.706361	0.328764	0.917377	0.255987
0.294132	0.605619	0.063011	1.94814	0.291109	0.54211	0.468231	0.534315	0.573455	0.604644	0.846063	0.319799	0.191183	1.91196	0.432254	0.584768	0.70667	0.335317	0.917618	0.261207
0.294701	0.616732	0.0648305	1.95762	0.291619	0.553416	0.468409	0.537916	0.574023	0.615813	0.846364	0.325993	0.19297	1.92582	0.432449	0.588929	0.706985	0.341834	0.917864	0.266446
0.295281	0.627825	0.0666588	1.96669	0.29214	0.564672	0.468524	0.540303	0.574602	0.626943	0.84667	0.33223	0.194771	1.93916	0.432717	0.594652	0.707307	0.348347	0.918115	0.27165
0.295871	0.638878	0.0684952	1.97539	0.292671	0.57594	0.46869	0.54377	0.575192	0.637998	0.846983	0.338477	0.196584	1.95191	0.433059	0.60181	0.707634	0.354929	0.91837	0.276858
0.296471	0.649852	0.0703397	1.98371	0.293213	0.587177	0.468872	0.547399	0.575791	0.649047	0.847301	0.344673	0.198408	1.96414	0.433479	0.610447	0.707968	0.361428	0.918631	0.282075
0.297082	0.660814	0.0721917	1.99171	0.293765	0.598325	0.46912	0.552476	0.576401	0.660014	0.847625	0.350913	0.200244	1.97586	0.433978	0.620623	0.708308	0.367907	0.918896	0.287307
0.297703	0.671752	0.074051	1.99935	0.294328	0.609466	0.469438	0.558802	0.577021	0.670889	0.847955	0.357093	0.20209	1.98711	0.434562	0.632214	0.708654	0.374419	0.919166	0.292499
0.298334	0.68264	0.0759173	2.00666	0.294901	0.620602	0.469828	0.566396	0.577651	0.681797	0.848291	0.363302	0.203947	1.99789	0.435156	0.643759	0.709006	0.380925	0.919441	0.297682
0.298975	0.693504	0.0777902	2.01373	0.295484	0.631664	0.470291	0.575335	0.578209	0.691239	0.848632	0.369493	0.205813	2.00827	0.435762	0.655281	0.709364	0.387419	0.919721	0.302922
0.299626	0.704319	0.0796696	2.02046	0.296078	0.642651	0.470832	0.585572	0.57869	0.699204	0.848979	0.375651	0.207689	2.01825	0.436378	0.666755	0.709728	0.393888	0.920005	0.308128
0.300287	0.715109	0.0815551	2.0269	0.296682	0.653638	0.471382	0.595781	0.579092	0.705813	0.849332	0.381887	0.209574	2.02778	0.437004	0.678205	0.710098	0.40038	0.920295	0.313339
0.300959	0.725848	0.0834465	2.0331	0.297296	0.664625	0.471942	0.605939	0.579412	0.711127	0.849691	0.388059	0.211467	2.03694	0.437641	0.68957	0.710474	0.406847	0.920589	0.318562
0.30164	0.736561	0.0853436	2.03907	0.29792	0.675538	0.472512	0.616108	0.57965	0.714782	0.850055	0.394179	0.213369	2.04577	0.438289	0.700892	0.710856	0.413261	0.920888	0.323735
0.302331	0.74722	0.0872461	2.04479	0.298555	0.686414	0.47309	0.626246	0.579802	0.717188	0.850425	0.40034	0.215279	2.05429	0.438947	0.712156	0.711244	0.419718	0.921192	0.328953
0.303032	0.757844	0.0891538	2.05028	0.299199	0.697273	0.473678	0.636333	0.580022	0.7209	0.850801	0.406508	0.217197	2.06246	0.439616	0.723391	0.711638	0.426187	0.921501	0.334189
0.303743	0.768473	0.0910666	2.05556	0.299854	0.708048	0.474276	0.646393	0.580263	0.7247	0.851183	0.41262	0.219123	2.07032	0.440295	0.734611	0.712038	0.432606	0.921815	0.339387
0.304464	0.779036	0.0929841	2.06063	0.300519	0.718819	0.474883	0.656403	0.580592	0.7298	0.85157	0.418764	0.221055	2.07788	0.440985	0.745751	0.712444	0.438998	0.922134	0.344584
0.3051	0.788214	0.0949063	2.06549	0.301193	0.729552	0.475499	0.666426	0.581012	0.736296	0.851963	0.424901	0.222995	2.08517	0.441685	0.756851	0.712856	0.445411	0.922457	0.349778
0.305649	0.796039	0.096833	2.07015	0.301878	0.740228	0.476125	0.676381	0.581524	0.744139	0.852362	0.431021	0.224941	2.09219	0.442395	0.767894	0.713274	0.451865	0.922786	0.354964
0.306106	0.80248	0.0987638	2.07465	0.302573	0.750949	0.47676	0.686302	0.582132	0.753338	0.852766	0.437109	0.226893	2.09892	0.443116	0.778909	0.713698	0.458254	0.923119	0.36021
0.30647	0.807527	0.100699	2.07895	0.303277	0.761547	0.477404	0.696243	0.582839	0.763839	0.853176	0.443206	0.228852	2.10547	0.443847	0.789836	0.714072	0.463788	0.923457	0.365428
0.30674	0.811302	0.102638	2.08308	0.303992	0.772119	0.478057	0.706121	0.583555	0.774252	0.853592	0.449321	0.230816	2.11175	0.444588	0.80072	0.714395	0.468499	0.9238	0.370592
0.306913	0.813777	0.10458	2.08711	0.304716	0.782715	0.478719	0.715931	0.584281	0.784623	0.854013	0.455398	0.232787	2.11778	0.445339	0.811618	0.714664	0.472434	0.924147	0.375792
0.307162	0.817173	0.106527	2.09097	0.30545	0.793213	0.479391	0.725743	0.585017	0.794935	0.854441	0.461474	0.234763	2.12365	0.4461	0.822414	0.714879	0.475595	0.9245	0.380992
0.307435	0.820814	0.108477	2.09468	0.306194	0.803699	0.480072	0.735556	0.585763	0.805218	0.854873	0.467547	0.236744	2.12926	0.446871	0.833122	0.715037	0.477932	0.924857	0.386192
0.307807	0.825892	0.11043	2.09822	0.306948	0.814179	0.480762	0.74526	0.586518	0.81545	0.855312	0.473614	0.23873	2.13471	0.447652	0.843859	0.715139	0.479272	0.92522	0.391392
0.308282	0.832285	0.112387	2.10163	0.307711	0.824583	0.48146	0.754982	0.587282	0.825583	0.855756	0.479668	0.240722	2.13995	0.448444	0.854501	0.715286	0.481331	0.925587	0.396591
0.308861	0.840004	0.114346	2.10494	0.308484	0.834985	0.482168	0.764678	0.588056	0.835703	0.856206	0.485697	0.242718	2.14503	0.449245	0.865096	0.715447	0.48372	0.925959	0.401789
0.309546	0.848995	0.116056	2.10768	0.309267	0.845386	0.482885	0.774249	0.588839	0.84578	0.856661	0.491749	0.244719	2.14995	0.450056	0.875666	0.715666	0.486692	0.926335	0.406985
0.310342	0.859375	0.117516	2.10997	0.31006	0.855713	0.483611	0.783869	0.589632	0.855763	0.857122	0.497775	0.246724	2.15464	0.450876	0.886152	0.715946	0.490598	0.926717	0.412176
0.311148	0.869656	0.118724	2.1119	0.310862	0.866004	0.484346	0.793477	0.590434	0.865735	0.857588	0.503747	0.248734	2.15922	0.451707	0.896595	0.716287	0.495322	0.927103	0.417359
0.311963	0.879923	0.11968	2.11332	0.311673	0.876276	0.48509	0.802968	0.591245	0.875628	0.858061	0.509758	0.250748	2.16364	0.452547	0.90698	0.716692	0.500841	0.927495	0.422525
0.312787	0.890184	0.120383	2.11429	0.312495	0.886576	0.485842	0.812437	0.592066	0.885445	0.858477	0.515027	0.252765	2.1679	0.453397	0.917299	0.717161	0.507189	0.927891	0.427729
0.313621	0.900404	0.120834	2.11495	0.313325	0.896816	0.486604	0.821933	0.592895	0.895224	0.858835	0.519479	0.254787	2.17204	0.454256	0.927586	0.717637	0.513476	0.928292	0.432938
0.314465	0.910642	0.121481	2.11594	0.314166	0.90699	0.487374	0.831332	0.593734	0.904948	0.859133	0.523138	0.256813	2.17602	0.455125	0.937856	0.718118	0.519769	0.928697	0.438082
0.315318	0.920814	0.122186	2.11692	0.315016	0.917204	0.488153	0.840682	0.594581	0.914607	0.85937	0.526038	0.258842	2.17987	0.456004	0.948045	0.718605	0.526065	0.929108	0.443243
0.316181	0.930991	0.123144	2.11824	0.315875	0.927401	0.48894	0.850045	0.595438	0.924234	0.859546	0.528197	0.260875	2.18363	0.456892	0.958193	0.719098	0.532363	0.929523	0.448438
0.317053	0.941133	0.124357	2.1199	0.316744	0.937554	0.489737	0.859377	0.596304	0.933808	0.859658	0.529529	0.262911	2.18723	0.457789	0.968248	0.719597	0.538624	0.929944	0.453628
0.317935	0.951257	0.125825	2.12184	0.317622	0.947683	0.490542	0.86862	0.597178	0.943282	0.859821	0.531462	0.26495	2.19072	0.458696	0.978256	0.720102	0.544904	0.930314	0.458124
0.318826	0.961373	0.127548	2.12407	0.31851	0.957802	0.491355	0.87782	0.598061	0.952744	0.859998	0.533627	0.266993	2.19411	0.459612	0.98824	0.720613	0.551157	0.930632	0.462015
0.319726	0.971485	0.129528	2.12653	0.319407	0.967915	0.492177	0.887034	0.598953	0.962126	0.86024	0.5365	0.269039	2.19738	0.460538	0.998176	0.721129	0.55736	0.930897	0.465128
0.320636	0.981595	0.131511	2.12889	0.320313	0.978025	0.493008	0.896145	0.599854	0.971467	0.860548	0.540187	0.271088	2.20055	0.461472	1.00805	0.721651	0.56361	0.931108	0.467694
0.321555	0.991666	0.133495	2.13117	0.321229	0.988098	0.493847	0.905242	0.600764	0.980752	0.860924	0.544632	0.273139	2.2036	0.462416	1.01782	0.722179	0.569849	0.931264	0.469492
0.322484	1.00176	0.135482	2.13341	0.322154	0.998187	0.494695	0.914331	0.601682	0.989972	0.861368	0.549771	0.275194	2.20655	0.463369	1.02762	0.722713	0.576044	0.931365	0.470655
0.323422	1.01182	0.137471	2.13556	0.323089	1.00825	0.495551	0.92338	0.602608	0.99916	0.861883	0.555706	0.277251	2.20946	0.464331	1.03735	0.723253	0.582254	0.931509	0.472363
0.324369	1.0219	0.139461	2.13758	0.324033	1.01833	0.496416	0.932336	0.603543	1.00826	0.862403	0.56164	0.279311	2.21223	0.465302	1.04697	0.723798	0.588436	0.931666	0.474137
0.325326	1.032	0.141454	2.13955	0.324987	1.02843	0.497288	0.941245	0.604487	1.01728	0.862929	0.567537	0.281373	2.21493	0.466282	1.05658	0.724349	0.594602	0.931881	0.47673
0.326292	1.04206	0.143448	2.14145	0.32595	1.0385	0.498169	0.950204	0.605439	1.02629	0.863461	0.573451	0.283438	2.21753	0.467271	1.06611	0.724906	0.600799	0.932155	0.479927
0.327268	1.05215	0.145444	2.14327	0.326922	1.04858	0.499059	0.959041	0.606399	1.03526	0.863998	0.579338	0.285505	2.22004	0.468268	1.0756	0.725469	0.606936	0.932489	0.483745
0.328253	1.06225	0.147442	2.14503	0.327903	1.05868	0.499957	0.967818	0.607368	1.04411	0.86454	0.585248	0.287575	2.22254	0.469275	1.08507	0.726037	0.613081	0.932883	0.488244
0.329247	1.07235	0.149441	2.14675	0.328895	1.06878	0.500862	0.976637	0.608345	1.05292	0.865089	0.591133	0.289647	2.22488	0.47029	1.09449	0.726611	0.61923	0.933341	0.493398
0.330251	1.08249	0.151442	2.14842	0.329895	1.07889	0.501776	0.985368	0.60933	1.06173	0.865642	0.596968	0.291721	2.22716	0.471314	1.10382	0.727191	0.625307	0.933803	0.498539
0.331264	1.09261	0.153445	2.14998	0.330905	1.08906	0.502699	0.994019	0.610323	1.07045	0.866201	0.602815	0.293797	2.22939	0.472347	1.11306	0.727776	0.631422	0.93427	0.503673
0.332287	1.10277	0.155448	2.1515	0.331924	1.09921	0.503629	1.00267	0.611325	1.0791	0.866765	0.608632	0.295875	2.23154	0.473388	1.12233	0.728367	0.637556	0.934741	0.50884
0.333319	1.11301	0.157454	2.15295	0.332953	1.10937	0.504567	1.01131	0.612334	1.0877	0.867335	0.61447	0.297955	2.23363	0.474438	1.1315	0.728964	0.643625	0.935218	0.513987
0.334361	1.12325	0.15946	2.15437	0.333992	1.11961	0.505513	1.01988	0.613352	1.09626	0.86791	0.620319	0.300037	2.23563	0.475497	1.14063	0.729567	0.6497	0.935699	0.519087
0.335412	1.1335	0.161468	2.15574	0.335039	1.12986	0.506467	1.02834	0.614377	1.10474	0.868491	0.626136	0.302121	2.23758	0.476564	1.1497	0.730175	0.655777	0.936185	0.524238
0.336473	1.14376	0.163477	2.15705	0.336097	1.14015	0.507429	1.03682	0.61541	1.1132	0.869077	0.631938	0.304207	2.23948	0.477639	1.1587	0.730789	0.661818	0.936676	0.529413
0.337544	1.15412	0.165488	2.15833	0.337164	1.15046	0.508399	1.04527	0.616451	1.12156	0.869668	0.637695	0.306294	2.2413	0.478723	1.16771	0.731408	0.667878	0.937172	0.534527
0.338624	1.16454	0.167499	2.15955	0.338241	1.16085	0.509377	1.05363	0.6175	1.12989	0.870265	0.643467	0.308383	2.24309	0.479815	1.17664	0.732033	0.673874	0.937672	0.539648
