Sym0		Asym0		Sym1		Sym2		Sym3		Sym4		Asym1		Asym2		Asym3		Asym4	
488  Points		501  Points		306  Points		232  Points		213  Points		157  Points		410  Points		253  Points		210  Points		164  Points	
Freq (MHz)	Vgr (m/ms)	Freq (MHz)	Vgr (m/ms)	Freq (MHz)	Vgr (m/ms)	Freq (MHz)	Vgr (m/ms)	Freq (MHz)	Vgr (m/ms)	Freq (MHz)	Vgr (m/ms)	Freq (MHz)	Vgr (m/ms)	Freq (MHz)	Vgr (m/ms)	Freq (MHz)	Vgr (m/ms)	Freq (MHz)	Vgr (m/ms)
0.000276509	4.529	5.09261e-005	0.17649	0.27951	0.0283219	0.393109	0.0478876	0.559018	0.0241696	0.838526	0.0139616	0.139765	0.139646	0.419265	0.0302974	0.698772	0.0118862	0.786202	0.0248743
0.00449615	4.52893	0.000215361	0.236958	0.279536	0.0457858	0.393154	0.065898	0.559041	0.0385685	0.838539	0.0226038	0.139895	0.218694	0.419293	0.0475325	0.698783	0.0204726	0.786225	0.0339789
0.00871566	4.52857	0.000492471	0.356984	0.279595	0.0805993	0.393232	0.101985	0.55909	0.0674096	0.838568	0.0398146	0.140172	0.376006	0.419354	0.0819528	0.69881	0.0376625	0.786265	0.0522105
0.0129346	4.52793	0.000880561	0.474794	0.279687	0.11529	0.393344	0.138124	0.559167	0.0962345	0.838613	0.0570243	0.140596	0.5314	0.419446	0.116369	0.698853	0.0548305	0.786322	0.0704366
0.017153	4.52708	0.0013772	0.589784	0.27981	0.149954	0.393489	0.17422	0.55927	0.125027	0.838675	0.0742319	0.141163	0.684278	0.41957	0.150706	0.698912	0.0719544	0.786396	0.0886515
0.0213704	4.52599	0.00197956	0.701405	0.279966	0.184492	0.393669	0.210378	0.5594	0.153827	0.838752	0.0914351	0.141871	0.833881	0.419727	0.185028	0.698987	0.089137	0.786488	0.106844
0.0255866	4.52459	0.00268419	0.809072	0.280154	0.218925	0.393882	0.246658	0.559556	0.182571	0.838845	0.10863	0.142716	0.979646	0.419915	0.219321	0.699078	0.10629	0.786596	0.125065
0.0298014	4.52298	0.00348717	0.912417	0.280374	0.253221	0.394128	0.282963	0.55974	0.211274	0.838954	0.125807	0.143696	1.12118	0.420136	0.253484	0.699185	0.123385	0.786721	0.143342
0.0340147	4.52115	0.00438438	1.01115	0.280626	0.287316	0.394409	0.319318	0.55995	0.239969	0.839079	0.143022	0.144806	1.25797	0.420388	0.287606	0.699308	0.140508	0.786863	0.161587
0.0382261	4.51902	0.00537134	1.10505	0.280909	0.321228	0.394723	0.355773	0.560187	0.268575	0.839221	0.160168	0.14604	1.38976	0.420671	0.321645	0.699447	0.157616	0.787022	0.179838
0.0424354	4.51667	0.00644351	1.1939	0.281224	0.354921	0.395072	0.392282	0.56045	0.297149	0.839378	0.177321	0.147395	1.51631	0.420987	0.355593	0.699602	0.174693	0.787198	0.198104
0.0466424	4.51401	0.00759604	1.2777	0.281571	0.388396	0.395454	0.428898	0.560741	0.325733	0.839551	0.194488	0.148866	1.63749	0.421334	0.389432	0.699772	0.191783	0.787391	0.216398
0.0508468	4.51104	0.00882436	1.35653	0.281948	0.421655	0.395871	0.465656	0.561057	0.35419	0.83974	0.211609	0.150447	1.7533	0.421713	0.423198	0.699959	0.208823	0.787601	0.234675
0.0550482	4.50781	0.0101238	1.43026	0.282356	0.454628	0.396322	0.502479	0.561401	0.38254	0.839945	0.228715	0.152133	1.8637	0.422123	0.456818	0.700161	0.225837	0.787828	0.252993
0.0592466	4.50429	0.0114895	1.49912	0.282795	0.487322	0.396807	0.539428	0.56177	0.410895	0.840167	0.245786	0.153919	1.9687	0.422564	0.490295	0.70038	0.242875	0.788072	0.271319
0.0634415	4.50047	0.0129172	1.56332	0.283265	0.519751	0.397327	0.576487	0.562166	0.439187	0.840403	0.262864	0.155801	2.06847	0.423036	0.523629	0.700614	0.259884	0.788334	0.289659
0.0676327	4.49634	0.0144026	1.62286	0.283764	0.551871	0.397881	0.613617	0.562589	0.467353	0.840656	0.279955	0.157774	2.16313	0.42354	0.556827	0.700864	0.276836	0.788612	0.308028
0.0718199	4.49188	0.0159413	1.67809	0.284293	0.583736	0.39847	0.65089	0.563037	0.495414	0.840925	0.296998	0.159832	2.25284	0.424074	0.589898	0.70113	0.293749	0.788908	0.326383
0.0760028	4.48707	0.0175295	1.72921	0.284852	0.615313	0.399094	0.688303	0.563512	0.52341	0.84121	0.314017	0.161972	2.33786	0.424639	0.622786	0.701411	0.310655	0.78922	0.344782
0.0801811	4.48192	0.0191634	1.77637	0.285439	0.646533	0.399753	0.725847	0.564012	0.551351	0.84151	0.330992	0.164188	2.41838	0.425234	0.655458	0.701709	0.327549	0.78955	0.363198
0.0843544	4.47645	0.0208395	1.81986	0.286056	0.677479	0.400447	0.763509	0.564539	0.57918	0.841827	0.347948	0.16618	2.48501	0.42586	0.68799	0.702022	0.344417	0.789897	0.381644
0.0885225	4.47056	0.0225545	1.85989	0.286702	0.70817	0.401176	0.80126	0.565092	0.60686	0.842159	0.364941	0.167919	2.53937	0.426516	0.720387	0.70235	0.361235	0.790261	0.40008
0.0926848	4.46421	0.0243053	1.89667	0.287376	0.738497	0.40194	0.839115	0.56567	0.634462	0.842507	0.381862	0.169385	2.5827	0.427203	0.752516	0.702695	0.378025	0.790643	0.418568
0.096841	4.45751	0.0260888	1.93047	0.288078	0.76861	0.402739	0.877106	0.566274	0.661981	0.84287	0.398712	0.170561	2.61589	0.427919	0.784473	0.703055	0.39476	0.791041	0.437087
0.100991	4.45042	0.0279025	1.96143	0.288808	0.79844	0.403574	0.915222	0.566904	0.689332	0.84325	0.415567	0.171435	2.63959	0.428664	0.816233	0.70343	0.411457	0.791457	0.455594
0.105134	4.44282	0.0297437	1.98981	0.289566	0.827998	0.404445	0.953441	0.567558	0.716568	0.843645	0.43243	0.171999	2.65455	0.42944	0.847748	0.703822	0.428153	0.79189	0.474152
0.10927	4.43472	0.0316103	2.01582	0.290351	0.857378	0.405351	0.99172	0.568239	0.74372	0.844055	0.449237	0.172815	2.6758	0.430244	0.879063	0.704228	0.444844	0.792341	0.492738
0.113398	4.42615	0.0335	2.03956	0.291163	0.886547	0.406293	1.03012	0.568944	0.77078	0.844482	0.466006	0.173709	2.6983	0.431078	0.910126	0.704651	0.461454	0.792808	0.511306
0.117517	4.41707	0.0354108	2.06127	0.292003	0.915514	0.40727	1.06861	0.569675	0.797653	0.844924	0.482771	0.174937	2.72825	0.43194	0.940978	0.705088	0.477975	0.793293	0.529912
0.121628	4.40739	0.0373409	2.08109	0.292869	0.9443	0.408284	1.10714	0.570431	0.824372	0.845381	0.499456	0.176509	2.76499	0.432831	0.971627	0.705541	0.494538	0.793796	0.548593
0.12573	4.39712	0.0392887	2.09914	0.293763	0.973013	0.409333	1.14575	0.571211	0.851004	0.845854	0.516126	0.178438	2.80771	0.43375	1.00202	0.70601	0.511038	0.794316	0.567279
0.129822	4.38624	0.0412524	2.1156	0.294682	1.00166	0.410419	1.18444	0.572016	0.877461	0.846343	0.532766	0.180738	2.85567	0.434698	1.03218	0.706493	0.527484	0.794853	0.585975
0.133903	4.37474	0.0432308	2.13057	0.295629	1.03023	0.411541	1.22315	0.572846	0.903788	0.846847	0.549349	0.183423	2.90798	0.435674	1.06204	0.706993	0.543897	0.795408	0.604688
0.137974	4.36251	0.0452225	2.14419	0.296602	1.05881	0.412698	1.26189	0.573701	0.930003	0.847367	0.565887	0.186156	2.95761	0.436677	1.09165	0.707507	0.560244	0.79598	0.623439
0.142032	4.34955	0.0472263	2.15656	0.297602	1.08749	0.413892	1.30064	0.574579	0.956065	0.847902	0.582412	0.188934	3.00455	0.437708	1.12107	0.708037	0.576605	0.796569	0.642191
0.146079	4.33586	0.049241	2.16781	0.298629	1.11627	0.415122	1.33938	0.575482	0.981967	0.848452	0.598909	0.191755	3.04896	0.438766	1.15017	0.708581	0.592921	0.797176	0.661018
0.150112	4.3213	0.0512658	2.17802	0.299545	1.14144	0.416388	1.37813	0.576409	1.0077	0.849018	0.61535	0.194616	3.09109	0.439851	1.179	0.709141	0.609146	0.797801	0.679848
0.154131	4.30588	0.0532995	2.18723	0.300343	1.16306	0.41769	1.4168	0.57736	1.03331	0.849599	0.631752	0.197515	3.13098	0.440963	1.20759	0.709716	0.625336	0.798443	0.698684
0.158135	4.28953	0.0550785	2.19459	0.301013	1.18112	0.419028	1.45548	0.578334	1.05874	0.850195	0.648077	0.20045	3.16876	0.442101	1.2359	0.710307	0.641529	0.799103	0.717608
0.162124	4.27222	0.0565995	2.20035	0.301551	1.19536	0.420402	1.49409	0.579333	1.08398	0.850806	0.664393	0.20342	3.20464	0.443266	1.26396	0.710912	0.657657	0.79978	0.736485
0.166096	4.25385	0.0578601	2.20485	0.301951	1.20584	0.421812	1.53263	0.580354	1.1091	0.851433	0.680693	0.206422	3.23862	0.444457	1.29173	0.711532	0.673726	0.800475	0.755415
0.17005	4.23439	0.0588586	2.20814	0.302208	1.2127	0.423258	1.57105	0.581399	1.13409	0.852075	0.696887	0.209454	3.27081	0.445673	1.31923	0.712167	0.68975	0.801188	0.774381
0.173986	4.2138	0.0595938	2.21049	0.302581	1.22252	0.424739	1.60935	0.582468	1.15887	0.852731	0.713014	0.212516	3.3014	0.446915	1.34647	0.712817	0.705758	0.801918	0.793341
0.177902	4.19194	0.0600647	2.21199	0.302989	1.23318	0.426257	1.64758	0.583559	1.18352	0.853403	0.729156	0.215606	3.3304	0.448182	1.37341	0.713482	0.721734	0.802666	0.812366
0.181798	4.1688	0.0607422	2.21395	0.303551	1.24784	0.427809	1.68559	0.584673	1.20799	0.85409	0.745254	0.218722	3.35786	0.449474	1.40011	0.714162	0.737646	0.803432	0.831373
0.185671	4.14429	0.0614792	2.21602	0.30427	1.2665	0.429398	1.72345	0.58581	1.23226	0.854792	0.761262	0.221863	3.38393	0.450791	1.42649	0.714857	0.753504	0.804215	0.850417
0.18952	4.11833	0.0624827	2.21879	0.305155	1.28943	0.431021	1.76116	0.586969	1.25641	0.855509	0.777239	0.225028	3.40869	0.452132	1.45258	0.715566	0.769326	0.805017	0.869535
0.193345	4.0908	0.0637535	2.22203	0.306213	1.3167	0.432679	1.79863	0.588151	1.28039	0.85624	0.793152	0.228215	3.43212	0.453498	1.47847	0.71629	0.785149	0.805836	0.888582
0.197143	4.06166	0.0652927	2.22572	0.307454	1.34861	0.434372	1.83593	0.589355	1.30417	0.856987	0.809012	0.231423	3.45435	0.454887	1.50403	0.717029	0.800903	0.806672	0.907706
0.200913	4.03086	0.0671015	2.22969	0.308726	1.38123	0.4361	1.87296	0.590581	1.3278	0.857748	0.824838	0.234652	3.47543	0.4563	1.5293	0.717783	0.816589	0.807527	0.926838
0.204654	3.99826	0.0691809	2.23379	0.310028	1.41472	0.437862	1.90974	0.591829	1.35123	0.858524	0.840597	0.237899	3.49534	0.457737	1.55436	0.718551	0.832288	0.808399	0.945985
0.208363	3.96382	0.0712639	2.23742	0.311362	1.44915	0.439659	1.94631	0.593099	1.37453	0.859314	0.856294	0.241165	3.51423	0.459197	1.57912	0.719334	0.847938	0.80929	0.965162
0.21204	3.92746	0.0733501	2.24066	0.312728	1.48468	0.441252	1.97788	0.59439	1.39768	0.860119	0.87194	0.244448	3.5321	0.460679	1.60361	0.720131	0.863565	0.810198	0.984329
0.215682	3.8891	0.0754391	2.24356	0.314128	1.5213	0.44263	2.00464	0.595703	1.42062	0.860939	0.88756	0.247747	3.54902	0.462185	1.62782	0.720943	0.879145	0.811124	1.00355
0.219287	3.84869	0.0775307	2.24607	0.315563	1.55913	0.443784	2.02668	0.597038	1.44336	0.861773	0.903126	0.251061	3.56495	0.463713	1.65178	0.721769	0.894632	0.812068	1.02272
0.222853	3.80611	0.0796244	2.24832	0.317034	1.59837	0.444705	2.04398	0.598393	1.46597	0.862622	0.918583	0.254389	3.57998	0.465062	1.6725	0.72261	0.910152	0.81303	1.04194
0.226379	3.76138	0.0817202	2.25028	0.318541	1.63901	0.445387	2.05685	0.599769	1.48843	0.863485	0.93397	0.257732	3.59416	0.466226	1.68997	0.723465	0.925664	0.81401	1.0612
0.229862	3.71447	0.0838176	2.252	0.320088	1.68116	0.445826	2.06488	0.601166	1.51072	0.864362	0.949363	0.261087	3.60748	0.467197	1.70429	0.724335	0.941086	0.815007	1.08045
0.233301	3.66533	0.0859165	2.25348	0.321674	1.72501	0.44646	2.07634	0.602584	1.5328	0.865254	0.964695	0.264454	3.62003	0.467971	1.71563	0.725219	0.956478	0.816023	1.0997
0.236692	3.614	0.0880167	2.25469	0.323302	1.77055	0.447153	2.08902	0.604023	1.55471	0.86616	0.979905	0.267832	3.63177	0.468543	1.72387	0.726117	0.971881	0.817056	1.11893
0.240035	3.56049	0.0901179	2.25578	0.324973	1.81786	0.448102	2.10598	0.605481	1.57647	0.86708	0.995091	0.271221	3.64276	0.468911	1.72909	0.72703	0.987231	0.818108	1.1382
0.243327	3.50487	0.0922201	2.25668	0.326689	1.86701	0.449314	2.1274	0.60696	1.5981	0.868014	1.01023	0.27462	3.65302	0.469441	1.73664	0.727957	1.00255	0.819177	1.15748
0.246566	3.44718	0.094323	2.25743	0.328452	1.91805	0.450795	2.15312	0.608459	1.61953	0.868962	1.02527	0.278028	3.66254	0.470021	1.74478	0.728898	1.01789	0.820265	1.17677
0.24975	3.38762	0.0964266	2.25802	0.330263	1.97104	0.452555	2.18305	0.609978	1.64078	0.869924	1.04027	0.281445	3.6714	0.470813	1.75584	0.729853	1.03317	0.82137	1.19603
0.252878	3.32628	0.0985306	2.25847	0.332125	2.02596	0.454605	2.21703	0.611517	1.6619	0.870901	1.05524	0.28487	3.67957	0.471822	1.76975	0.730823	1.04844	0.822493	1.21527
0.255557	3.27157	0.100635	2.2588	0.334039	2.08282	0.456686	2.25064	0.613075	1.68283	0.871891	1.0701	0.288301	3.68706	0.473052	1.78644	0.731807	1.06367	0.823635	1.23457
0.257805	3.22401	0.10274	2.25904	0.336006	2.14154	0.458799	2.28389	0.614652	1.70359	0.872895	1.08489	0.29174	3.69392	0.474511	1.80587	0.732805	1.07889	0.824794	1.25383
0.259639	3.18416	0.104844	2.25919	0.338029	2.2021	0.460942	2.31674	0.616249	1.72423	0.873912	1.09966	0.295185	3.70017	0.476203	1.82792	0.733817	1.0941	0.825971	1.27309
0.261073	3.1524	0.106949	2.25927	0.34011	2.26438	0.463116	2.34917	0.617865	1.74471	0.874944	1.11434	0.298635	3.70578	0.477917	1.84978	0.734844	1.10927	0.827166	1.29234
0.262118	3.12877	0.109054	2.25924	0.342249	2.32819	0.46532	2.38117	0.6195	1.76501	0.875989	1.12898	0.30209	3.71082	0.47965	1.8714	0.735884	1.12447	0.828379	1.31159
0.262782	3.11363	0.111159	2.25915	0.344448	2.3935	0.467553	2.41277	0.621154	1.78519	0.877047	1.14354	0.30555	3.71525	0.481404	1.89284	0.736939	1.13962	0.82961	1.33081
0.263732	3.09185	0.113264	2.25899	0.346709	2.46006	0.469816	2.44391	0.622827	1.80518	0.87812	1.158	0.309013	3.71907	0.483177	1.91406	0.738008	1.15477	0.830859	1.35
0.264757	3.06802	0.115369	2.25877	0.349032	2.52758	0.472107	2.47464	0.624299	1.82248	0.879205	1.17242	0.31248	3.72237	0.48497	1.93504	0.739091	1.16991	0.832126	1.3692
0.266138	3.03547	0.117473	2.25855	0.351418	2.59584	0.474427	2.50499	0.625566	1.83718	0.880304	1.18675	0.315949	3.72509	0.486783	1.95586	0.740188	1.18502	0.83341	1.38839
0.267863	2.9941	0.119577	2.25825	0.353869	2.66465	0.476775	2.53484	0.626621	1.84918	0.881417	1.20107	0.319421	3.72721	0.488615	1.97648	0.741299	1.20016	0.834713	1.40759
0.269918	2.94402	0.121681	2.25789	0.356384	2.73366	0.47915	2.56428	0.62746	1.85879	0.882542	1.21528	0.322894	3.72879	0.490466	1.99694	0.742424	1.21528	0.836033	1.42673
0.272285	2.88529	0.123784	2.25752	0.358963	2.80255	0.481553	2.59327	0.62808	1.86571	0.883681	1.22942	0.326369	3.72987	0.492336	2.01724	0.743564	1.23036	0.837371	1.44582
0.274942	2.81803	0.125888	2.25715	0.361606	2.87106	0.483982	2.6218	0.628477	1.87008	0.884833	1.24356	0.329845	3.73037	0.494225	2.03735	0.744717	1.24549	0.838727	1.46495
0.277536	2.75126	0.12799	2.25671	0.364313	2.93889	0.486438	2.6499	0.629051	1.87647	0.885998	1.25756	0.33332	3.73033	0.496132	2.05729	0.745885	1.2606	0.840101	1.48403
0.280068	2.68528	0.130093	2.25624	0.367082	3.00573	0.48892	2.67754	0.629676	1.88338	0.887177	1.27149	0.336796	3.72984	0.498058	2.07711	0.747066	1.27567	0.841493	1.50306
0.28254	2.62039	0.132195	2.25574	0.369914	3.07127	0.491428	2.70476	0.630531	1.89286	0.888368	1.28536	0.34027	3.72874	0.500003	2.0968	0.748262	1.29077	0.842902	1.52209
0.284951	2.55685	0.134296	2.25528	0.372805	3.13531	0.49396	2.73156	0.631618	1.90468	0.889572	1.2992	0.343744	3.72714	0.501966	2.11635	0.749471	1.3059	0.844329	1.54103
0.287304	2.49491	0.136397	2.25479	0.375756	3.19762	0.496518	2.75788	0.632941	1.91886	0.890789	1.31295	0.347215	3.72505	0.503947	2.13576	0.750695	1.32099	0.845773	1.56001
0.2896	2.43475	0.138498	2.25429	0.378764	3.25799	0.499099	2.78375	0.634505	1.93543	0.892018	1.32661	0.350685	3.7224	0.505945	2.15505	0.751933	1.33609	0.847236	1.57893
0.291841	2.37655	0.140598	2.25378	0.381827	3.3162	0.501705	2.80925	0.636317	1.95432	0.893261	1.34023	0.354152	3.71924	0.507962	2.1743	0.753185	1.3512	0.848716	1.5978
0.294029	2.32049	0.142697	2.2532	0.384943	3.37214	0.504334	2.83427	0.638147	1.97311	0.894516	1.35378	0.357615	3.71557	0.509997	2.1934	0.754287	1.36434	0.850213	1.61664
0.296165	2.26668	0.144796	2.25265	0.38811	3.42579	0.506986	2.85886	0.639994	1.99177	0.895783	1.36726	0.361075	3.71136	0.512049	2.21241	0.755235	1.3756	0.851728	1.63544
0.298252	2.21521	0.146895	2.25215	0.391327	3.47692	0.509661	2.88306	0.641858	2.01029	0.897063	1.38066	0.364531	3.70665	0.51412	2.23139	0.756025	1.38487	0.85326	1.6542
0.300293	2.16607	0.148993	2.25161	0.394589	3.52556	0.512358	2.9068	0.64374	2.02867	0.898356	1.39398	0.367982	3.70148	0.516207	2.2503	0.756653	1.39223	0.85481	1.6729
0.302289	2.11934	0.151091	2.25105	0.397896	3.57171	0.515078	2.93017	0.645639	2.04694	0.899661	1.40722	0.371428	3.69574	0.518313	2.26909	0.757118	1.3976	0.856378	1.69156
0.304242	2.0751	0.153188	2.25051	0.401245	3.61533	0.517819	2.9531	0.647554	2.06512	0.900978	1.42046	0.374869	3.68947	0.520436	2.28786	0.757416	1.40098	0.857962	1.71019
0.306155	2.03321	0.155284	2.24995	0.404633	3.65644	0.520581	2.97563	0.649487	2.08315	0.902308	1.43359	0.378303	3.68274	0.522576	2.30662	0.757845	1.40598	0.859565	1.72878
0.308031	1.99366	0.15738	2.24941	0.408058	3.69508	0.523363	2.99776	0.651436	2.10106	0.903649	1.44661	0.381731	3.67546	0.524734	2.32534	0.758314	1.41146	0.861184	1.74728
0.30987	1.95645	0.159476	2.24889	0.411518	3.73136	0.526167	3.01949	0.653402	2.11888	0.905003	1.45961	0.385152	3.66768	0.526909	2.34403	0.758954	1.41882	0.86282	1.76575
0.311676	1.92148	0.161571	2.24833	0.415011	3.76525	0.52899	3.04086	0.655384	2.13661	0.906369	1.47256	0.388566	3.6594	0.529102	2.36272	0.759769	1.42811	0.864474	1.78416
0.313451	1.88869	0.163665	2.2478	0.418534	3.79684	0.531833	3.06188	0.657383	2.15423	0.907747	1.48542	0.391971	3.65057	0.531312	2.3814	0.760761	1.43937	0.865929	1.80015
0.315196	1.85797	0.165759	2.24728	0.422086	3.82626	0.534695	3.08245	0.659398	2.17176	0.909137	1.4982	0.395368	3.64121	0.533539	2.40012	0.761935	1.45255	0.86718	1.81375
0.316913	1.82925	0.167853	2.24676	0.425664	3.8536	0.537577	3.1027	0.66143	2.18916	0.910539	1.51092	0.398756	3.63137	0.535784	2.41881	0.763296	1.46769	0.868221	1.82499
0.318604	1.80251	0.169946	2.24624	0.429267	3.87888	0.540477	3.12261	0.663478	2.20651	0.911953	1.52355	0.402135	3.62103	0.538046	2.43754	0.76467	1.48287	0.869049	1.8339
0.320272	1.77756	0.172038	2.24573	0.432892	3.90221	0.543395	3.14212	0.665542	2.22375	0.913378	1.53615	0.405503	3.61014	0.540326	2.45635	0.766059	1.49808	0.86966	1.84042
0.321916	1.75429	0.17413	2.24522	0.436538	3.9237	0.546332	3.16132	0.667621	2.2409	0.91463	1.54708	0.408862	3.59873	0.542623	2.47513	0.767462	1.51326	0.870053	1.84454
0.32354	1.73273	0.176222	2.2447	0.440203	3.94341	0.549286	3.18015	0.669717	2.25798	0.915704	1.5563	0.412209	3.58684	0.544938	2.49397	0.768879	1.5284	0.870618	1.85053
0.325145	1.71272	0.178313	2.24423	0.443886	3.96143	0.552258	3.19868	0.671829	2.27497	0.916596	1.56397	0.415545	3.57445	0.547271	2.51287	0.77031	1.54362	0.871235	1.857
0.326732	1.69418	0.180404	2.24377	0.447585	3.97788	0.555246	3.21689	0.673956	2.29189	0.917306	1.56998	0.41887	3.56147	0.549621	2.53181	0.771755	1.55885	0.872077	1.86578
0.328302	1.677	0.182494	2.24328	0.451299	3.9928	0.558252	3.23474	0.6761	2.30874	0.917829	1.57433	0.422182	3.54803	0.551988	2.55087	0.773215	1.57404	0.873148	1.87693
0.329857	1.66113	0.184584	2.24278	0.455025	4.0062	0.561274	3.25235	0.678259	2.32559	0.918164	1.57714	0.425481	3.53413	0.554374	2.56996	0.774688	1.58929	0.874452	1.89032
0.331397	1.64648	0.186673	2.24231	0.458764	4.01828	0.564312	3.26961	0.680433	2.34228	0.918648	1.58127	0.428767	3.51967	0.556777	2.5891	0.776176	1.60454	0.875993	1.90605
0.332925	1.63298	0.188762	2.24186	0.462513	4.02904	0.567367	3.28659	0.682623	2.35895	0.919175	1.58565	0.43204	3.50472	0.559198	2.60834	0.777678	1.61978	0.877778	1.92397
0.33444	1.62058	0.190851	2.24141	0.466271	4.03853	0.570437	3.30328	0.684829	2.37559	0.919894	1.59158	0.435298	3.48929	0.561637	2.62766	0.779194	1.63505	0.879578	1.94183
0.335945	1.60918	0.192939	2.24097	0.470038	4.04686	0.573522	3.31965	0.68705	2.39212	0.920807	1.59911	0.438542	3.47338	0.564095	2.64706	0.780725	1.6503	0.881396	1.95966
0.337439	1.59876	0.195027	2.24053	0.473812	4.05402	0.576622	3.33582	0.689286	2.40866	0.921916	1.60815	0.44177	3.457	0.56657	2.66654	0.782269	1.66555	0.88323	1.97744
0.338924	1.58923	0.197114	2.24009	0.477592	4.0601	0.579738	3.3517	0.691538	2.42517	0.923226	1.61876	0.444983	3.44013	0.569063	2.68606	0.783828	1.68082	0.885081	1.99511
0.3404	1.58051	0.199201	2.23969	0.481378	4.06515	0.582868	3.36726	0.693805	2.44155	0.92474	1.63079	0.448181	3.4228	0.571575	2.70567	0.785402	1.69611	0.886948	2.01271
0.341869	1.57256	0.201287	2.2393	0.485167	4.06925	0.586012	3.38266	0.696088	2.45798	0.926265	1.64281	0.451361	3.40501	0.574105	2.7254	0.786989	1.71141	0.888831	2.03022
