Sym0		Asym0		Sym1		Sym2		Asym1		Asym2		Asym3	
345  Points		344  Points		206  Points		142  Points		293  Points		293  Points		145  Points	
Freq (MHz)	Vgr (m/ms)	Freq (MHz)	Vgr (m/ms)	Freq (MHz)	Vgr (m/ms)	Freq (MHz)	Vgr (m/ms)	Freq (MHz)	Vgr (m/ms)	Freq (MHz)	Vgr (m/ms)	Freq (MHz)	Vgr (m/ms)
0.00340617	9.01363	0.000349084	0.511815	0.459109	-0.0608457	0.612376	0.115312	0.306192	0.157147	0.306187	0.111603	0.917434	-3.05146
0.00934442	9.01279	0.000686272	0.596608	0.459069	-0.0886439	0.612451	0.192235	0.306296	0.255151	0.30626	0.209666	0.915424	-3.04097
0.0152816	9.01058	0.00113518	0.765327	0.458992	-0.143865	0.612629	0.345837	0.306528	0.450764	0.306463	0.405455	0.913428	-3.01457
0.0212169	9.00731	0.00169468	0.932064	0.45888	-0.197959	0.612907	0.498604	0.30689	0.64529	0.306794	0.600231	0.911452	-2.98207
0.0271497	9.00294	0.00236329	1.0965	0.458732	-0.250525	0.613286	0.650114	0.307379	0.838266	0.307254	0.793601	0.909498	-2.94858
0.0330793	8.99751	0.00313944	1.25828	0.458549	-0.301175	0.613764	0.800042	0.307994	1.02928	0.30784	0.985196	0.907567	-2.91442
0.039005	8.9909	0.00402122	1.41696	0.458335	-0.34944	0.61434	0.948051	0.308735	1.21793	0.308552	1.17438	0.905658	-2.87976
0.0449259	8.98317	0.00500645	1.57232	0.458089	-0.395113	0.615013	1.09388	0.309599	1.4038	0.309387	1.36092	0.903772	-2.84463
0.0508414	8.97434	0.00609293	1.72414	0.457814	-0.437776	0.615781	1.2372	0.310584	1.58651	0.310345	1.54445	0.90191	-2.80906
0.0567506	8.96425	0.0072782	1.87209	0.457512	-0.477113	0.616643	1.37781	0.311689	1.76581	0.311422	1.72455	0.900071	-2.77305
0.0626528	8.95296	0.00855963	2.01595	0.457185	-0.512905	0.617597	1.51545	0.312911	1.94137	0.312617	1.90099	0.898256	-2.73654
0.0685472	8.94044	0.00993444	2.15565	0.456836	-0.54492	0.61864	1.64987	0.314247	2.11288	0.313927	2.07344	0.896466	-2.69968
0.0744328	8.92658	0.0113999	2.29107	0.456467	-0.572906	0.619771	1.78106	0.315695	2.28014	0.315349	2.24173	0.894699	-2.66231
0.080309	8.91139	0.0129532	2.42198	0.456082	-0.596663	0.620987	1.90888	0.317252	2.44302	0.316881	2.40564	0.892958	-2.62444
0.0861746	8.89479	0.0145912	2.54841	0.455681	-0.616107	0.622286	2.03308	0.318914	2.60129	0.318519	2.56494	0.891241	-2.58611
0.0920289	8.87671	0.016311	2.67036	0.45527	-0.63107	0.623665	2.15376	0.320679	2.75479	0.32026	2.71958	0.88955	-2.54735
0.0978707	8.85713	0.0181097	2.78768	0.45485	-0.641417	0.625124	2.27083	0.322544	2.90352	0.322102	2.86944	0.887885	-2.50816
0.103699	8.83599	0.0199841	2.9005	0.454425	-0.647093	0.626658	2.38419	0.324505	3.04737	0.324041	3.01442	0.886245	-2.46842
0.109513	8.81319	0.0219314	3.0088	0.453997	-0.647982	0.628265	2.49398	0.326559	3.18634	0.326074	3.15449	0.884632	-2.42818
0.115312	8.7886	0.0239486	3.11259	0.453571	-0.643961	0.629944	2.60012	0.328703	3.3203	0.328198	3.28963	0.883046	-2.38749
0.121093	8.76222	0.0260326	3.21204	0.453149	-0.635091	0.631691	2.70262	0.330934	3.44931	0.330409	3.41985	0.881486	-2.34629
0.126857	8.73391	0.0281808	3.30714	0.452734	-0.621286	0.633505	2.80165	0.333248	3.57351	0.332704	3.54514	0.879954	-2.30461
0.132601	8.70359	0.0303902	3.39802	0.45233	-0.60248	0.635382	2.89728	0.335642	3.69275	0.33508	3.66551	0.87845	-2.26236
0.138325	8.67113	0.0326581	3.48478	0.45194	-0.578644	0.637322	2.98941	0.338114	3.80725	0.337533	3.78112	0.876973	-2.2196
0.144026	8.63645	0.0349818	3.56758	0.451568	-0.549721	0.639321	3.07827	0.340659	3.91702	0.340062	3.89198	0.875525	-2.17634
0.149704	8.59942	0.0373588	3.64648	0.451216	-0.515699	0.641378	3.16391	0.343275	4.02211	0.342662	3.99811	0.874106	-2.1325
0.155357	8.55983	0.0397864	3.72161	0.450888	-0.476449	0.64349	3.24642	0.345958	4.12271	0.34533	4.09975	0.872716	-2.08812
0.160983	8.51764	0.0422624	3.79306	0.450588	-0.432027	0.645656	3.32589	0.348707	4.21876	0.348063	4.19686	0.871355	-2.04317
0.16658	8.47262	0.0447842	3.86107	0.450319	-0.382336	0.647872	3.40237	0.351517	4.31049	0.35086	4.28957	0.870023	-1.99771
0.172147	8.42464	0.0473498	3.92572	0.450084	-0.327286	0.650139	3.4761	0.354386	4.39794	0.353716	4.37805	0.868722	-1.95164
0.17768	8.37352	0.0499568	3.98707	0.449888	-0.266802	0.652453	3.54701	0.357312	4.48126	0.356628	4.46229	0.867452	-1.90498
0.18318	8.31914	0.0526032	4.04535	0.449733	-0.200834	0.654812	3.61528	0.360291	4.5606	0.359595	4.54251	0.866212	-1.85773
0.188642	8.26123	0.055287	4.10058	0.449623	-0.129286	0.657216	3.68098	0.363321	4.63588	0.362614	4.61876	0.865004	-1.80986
0.194065	8.19959	0.0580062	4.15305	0.449562	-0.0519638	0.659662	3.74422	0.366399	4.70743	0.365681	4.69118	0.863828	-1.76144
0.199446	8.13411	0.0607592	4.20277	0.449555	0.0311626	0.66215	3.80514	0.369524	4.77532	0.368795	4.75989	0.862683	-1.71236
0.204782	8.06446	0.0635439	4.24981	0.449603	0.1202	0.664676	3.86369	0.372691	4.83952	0.371953	4.82492	0.861571	-1.66258
0.210072	7.99052	0.0663588	4.29436	0.449713	0.215306	0.66724	3.92009	0.3759	4.90018	0.375152	4.88639	0.860493	-1.61221
0.215311	7.91205	0.0692022	4.33655	0.449887	0.316648	0.669841	3.97436	0.379148	4.95749	0.378391	4.94451	0.859447	-1.56118
0.220497	7.82874	0.0720727	4.3765	0.45013	0.424244	0.672477	4.02656	0.382432	5.01152	0.381667	4.99931	0.858436	-1.50948
0.225626	7.74044	0.0749687	4.41424	0.450446	0.538343	0.675147	4.0768	0.385751	5.06229	0.384978	5.05082	0.857458	-1.45713
0.230696	7.64701	0.0778889	4.44993	0.450839	0.659024	0.677849	4.12516	0.389102	5.10999	0.388322	5.09913	0.856516	-1.40402
0.235702	7.5482	0.080832	4.48373	0.451314	0.786448	0.680582	4.17175	0.392484	5.15462	0.391697	5.14449	0.855608	-1.3502
0.240641	7.44379	0.0837968	4.51559	0.451876	0.920729	0.683346	4.21656	0.395894	5.19623	0.395101	5.18684	0.854737	-1.29571
0.24551	7.3337	0.0867819	4.54564	0.452528	1.06178	0.686138	4.25968	0.399331	5.23501	0.398531	5.22626	0.853901	-1.24048
0.250304	7.2177	0.0897862	4.57405	0.453275	1.20986	0.688958	4.30117	0.402792	5.27105	0.401987	5.26296	0.853102	-1.18451
0.25502	7.09581	0.0928087	4.60082	0.454122	1.36494	0.691805	4.34107	0.406276	5.30428	0.405466	5.29678	0.85234	-1.12778
0.259654	6.96794	0.0958483	4.6261	0.455073	1.52688	0.694678	4.37942	0.409781	5.33481	0.408966	5.32796	0.851616	-1.07025
0.264201	6.83411	0.0989041	4.64992	0.456134	1.69569	0.697576	4.41635	0.413305	5.36281	0.412486	5.35655	0.85093	-1.01195
0.268659	6.69448	0.101975	4.6723	0.457307	1.87122	0.700497	4.45188	0.416847	5.38826	0.416024	5.38256	0.850283	-0.95284
0.273022	6.54915	0.10506	4.69343	0.458599	2.05323	0.703441	4.48607	0.420405	5.41119	0.419578	5.40609	0.849675	-0.892932
0.277288	6.39832	0.108159	4.71333	0.460013	2.24137	0.706408	4.51891	0.423977	5.43167	0.423147	5.42716	0.849106	-0.832261
0.281452	6.2423	0.111271	4.73201	0.461552	2.43535	0.709396	4.55043	0.427562	5.44975	0.426729	5.44578	0.848578	-0.770684
0.285513	6.08168	0.114394	4.74956	0.463222	2.63468	0.712404	4.58073	0.431158	5.46551	0.430322	5.46209	0.848091	-0.708228
0.289466	5.91685	0.117529	4.76603	0.465024	2.83862	0.715431	4.60985	0.434763	5.47899	0.433926	5.47608	0.847645	-0.644946
0.293309	5.74837	0.120674	4.78157	0.466962	3.04669	0.718478	4.63784	0.438377	5.49022	0.437538	5.48779	0.847241	-0.580841
0.29704	5.57702	0.123829	4.79607	0.469038	3.25816	0.721542	4.6647	0.441997	5.49921	0.441157	5.49734	0.84688	-0.515816
0.300657	5.40359	0.126993	4.80963	0.471255	3.47208	0.724624	4.69047	0.445623	5.506	0.444781	5.50462	0.846561	-0.449881
0.30416	5.22887	0.130166	4.82247	0.473613	3.68758	0.727722	4.71518	0.449252	5.51067	0.44841	5.50976	0.846287	-0.383058
0.307547	5.05375	0.133348	4.83437	0.476114	3.90375	0.730837	4.73891	0.452884	5.51317	0.452041	5.51279	0.846057	-0.315291
0.310819	4.87918	0.136126	4.84414	0.478757	4.11971	0.733967	4.76161	0.456516	5.51362	0.455673	5.51367	0.845871	-0.246566
0.313976	4.70603	0.138499	4.85205	0.481542	4.33432	0.737111	4.78329	0.460149	5.51203	0.459306	5.51252	0.845732	-0.17696
0.317019	4.5353	0.140463	4.85824	0.484468	4.54664	0.740269	4.80408	0.463779	5.50834	0.462937	5.50941	0.845638	-0.106422
0.319952	4.36785	0.142019	4.86304	0.487533	4.75584	0.743441	4.82401	0.467406	5.50272	0.466565	5.50421	0.845591	-0.034932
0.322775	4.20448	0.143163	4.86636	0.490734	4.96097	0.746625	4.84304	0.471029	5.4951	0.470189	5.49704	0.845592	0.0375292
0.325491	4.04606	0.143896	4.86838	0.494069	5.16116	0.749822	4.86122	0.474647	5.48555	0.473808	5.48796	0.845641	0.110981
0.328106	3.89318	0.144951	4.87142	0.497535	5.35572	0.75303	4.87862	0.478257	5.47402	0.47742	5.47686	0.845738	0.18538
0.330621	3.74641	0.146097	4.87465	0.501126	5.54412	0.75625	4.89519	0.481859	5.4606	0.481024	5.46387	0.845885	0.260739
0.333042	3.60639	0.147658	4.8787	0.50484	5.72566	0.75948	4.91092	0.485452	5.44535	0.484619	5.44908	0.846082	0.337085
0.335373	3.47344	0.149633	4.88376	0.50867	5.89992	0.762721	4.92593	0.489034	5.42821	0.488204	5.43235	0.846329	0.414372
0.337619	3.34777	0.152025	4.8896	0.512613	6.06665	0.765971	4.94029	0.492605	5.40927	0.491777	5.41379	0.846628	0.492608
0.339784	3.22964	0.154834	4.89595	0.516664	6.22559	0.76923	4.95391	0.496162	5.38848	0.495337	5.39346	0.846978	0.571808
0.341874	3.11912	0.158061	4.90275	0.520816	6.3766	0.772498	4.96684	0.499705	5.36595	0.498884	5.37135	0.847381	0.651902
0.343894	3.01628	0.161294	4.90905	0.525066	6.51962	0.775775	4.97914	0.503232	5.34172	0.502415	5.34752	0.847837	0.732956
0.345848	2.92101	0.16453	4.9149	0.529407	6.65463	0.779059	4.9908	0.506743	5.31574	0.50593	5.32192	0.848347	0.814995
0.347743	2.83321	0.16777	4.92031	0.533834	6.78172	0.782351	5.00188	0.510236	5.28812	0.509427	5.29466	0.848911	0.897867
0.349582	2.75271	0.171013	4.92519	0.538342	6.90105	0.785649	5.01245	0.513265	5.26275	0.51246	5.26963	0.84953	0.981574
0.35137	2.67924	0.174259	4.92964	0.542927	7.01281	0.788955	5.02239	0.515835	5.24015	0.515033	5.24734	0.850204	1.06623
0.353112	2.61256	0.177508	4.93374	0.547583	7.11721	0.792267	5.03182	0.517952	5.22076	0.517153	5.22825	0.850935	1.15164
0.354812	2.55244	0.18076	4.93744	0.552305	7.21445	0.795585	5.04083	0.51962	5.20498	0.518824	5.21255	0.851722	1.23784
0.356475	2.49859	0.184014	4.9408	0.557088	7.30475	0.798909	5.04933	0.520843	5.19332	0.520049	5.20096	0.852566	1.32488
0.358104	2.45056	0.18727	4.94377	0.561929	7.38848	0.802238	5.05742	0.521625	5.18571	0.520831	5.19349	0.853468	1.41258
0.359704	2.40816	0.190528	4.94645	0.566824	7.46584	0.805573	5.06511	0.522746	5.17449	0.521954	5.18233	0.854427	1.50096
0.361277	2.37109	0.193787	4.94882	0.571767	7.53707	0.808912	5.07242	0.523962	5.16213	0.523172	5.1701	0.855445	1.59001
0.362828	2.33891	0.197048	4.95089	0.576755	7.60268	0.812256	5.07946	0.525611	5.14503	0.524824	5.15325	0.856522	1.67964
0.364359	2.31143	0.200311	4.95265	0.581135	7.65537	0.815605	5.08619	0.527689	5.12294	0.526905	5.13137	0.857658	1.76982
0.365874	2.28837	0.203574	4.95415	0.584892	7.69707	0.818958	5.0926	0.53019	5.09551	0.52941	5.10415	0.858854	1.86048
0.367374	2.26929	0.206838	4.95547	0.588014	7.7295	0.822315	5.0988	0.533106	5.06241	0.532331	5.07131	0.86011	1.95158
0.368864	2.25401	0.210104	4.95649	0.590491	7.75365	0.825676	5.10489	0.536428	5.0231	0.535659	5.03236	0.861426	2.04295
0.370344	2.2423	0.213369	4.95731	0.592318	7.77056	0.829041	5.11084	0.539724	4.98257	0.538962	4.99207	0.862802	2.13463
0.371818	2.2338	0.216635	4.95793	0.593489	7.78117	0.83241	5.11663	0.542993	4.94081	0.542237	4.95059	0.864238	2.22664
0.373287	2.2284	0.219902	4.95829	0.595175	7.796	0.835783	5.12241	0.546234	4.89787	0.545485	4.90794	0.865735	2.31868
0.374754	2.22579	0.223169	4.95847	0.597011	7.81135	0.839159	5.12817	0.549447	4.85377	0.548704	4.86408	0.867293	2.41079
0.37622	2.22574	0.226435	4.95851	0.599514	7.83126	0.84254	5.13399	0.55263	4.80862	0.551894	4.81921	0.868912	2.50292
0.377687	2.22813	0.229702	4.95837	0.602688	7.85498	0.845924	5.13994	0.555783	4.76258	0.555054	4.77337	0.870591	2.59499
0.379156	2.2327	0.232968	4.95805	0.606539	7.88148	0.849312	5.14604	0.558905	4.71559	0.558183	4.72652	0.872331	2.68685
0.380439	2.23829	0.236235	4.95757	0.611072	7.9096	0.852705	5.15234	0.561996	4.6677	0.561281	4.67891	0.874131	2.77838
0.381536	2.24407	0.239501	4.95697	0.616293	7.93807	0.856101	5.15892	0.565055	4.61915	0.564348	4.63051	0.875992	2.86957
0.382445	2.24981	0.242766	4.95621	0.621531	7.96272	0.859502	5.16588	0.568082	4.56991	0.567383	4.58134	0.877912	2.96038
0.383166	2.25475	0.246031	4.95531	0.626785	7.98354	0.862908	5.17317	0.571076	4.52002	0.570384	4.53164	0.879893	3.05064
0.383697	2.25853	0.249295	4.95434	0.632051	8.00073	0.866318	5.1809	0.574038	4.4697	0.573354	4.48146	0.881932	3.14021
0.384037	2.26113	0.252559	4.95318	0.637327	8.0144	0.869734	5.18923	0.576966	4.41895	0.576289	4.43079	0.88403	3.22914
0.384527	2.26488	0.255822	4.95193	0.642611	8.02455	0.873156	5.19811	0.57986	4.36789	0.579192	4.37972	0.886187	3.3172
0.38506	2.26924	0.259084	4.95063	0.6479	8.03144	0.876583	5.20769	0.582721	4.31652	0.58206	4.32844	0.888401	3.40434
0.385787	2.27569	0.262345	4.94915	0.653193	8.03514	0.880017	5.21804	0.585548	4.26504	0.584895	4.27701	0.890672	3.49058
0.38671	2.28406	0.265605	4.94758	0.658487	8.03565	0.883459	5.22922	0.588341	4.21351	0.587696	4.22545	0.893	3.57573
0.38783	2.29479	0.268864	4.94602	0.663781	8.03305	0.886908	5.24132	0.5911	4.1619	0.590462	4.17388	0.895384	3.65965
0.389152	2.30828	0.272122	4.94431	0.669072	8.0274	0.890365	5.25433	0.593824	4.11051	0.593195	4.12246	0.897822	3.74235
0.390678	2.32474	0.275378	4.94247	0.674358	8.01878	0.893831	5.26844	0.596516	4.05929	0.595894	4.07116	0.900315	3.82374
0.392215	2.34218	0.278634	4.94062	0.679637	8.00727	0.897307	5.28372	0.599173	4.00835	0.598559	4.02014	0.902861	3.90376
0.393764	2.36059	0.281888	4.93866	0.684908	7.99281	0.900793	5.3002	0.601797	3.95776	0.601191	3.96946	0.905458	3.9823
0.395325	2.37984	0.285141	4.93664	0.690169	7.97543	0.90429	5.31802	0.604388	3.90761	0.60379	3.9192	0.908108	4.05929
0.396899	2.39977	0.288393	4.93459	0.695417	7.95514	0.9078	5.3372	0.606946	3.85803	0.606355	3.86953	0.910807	4.13467
0.398487	2.42041	0.291643	4.93249	0.700651	7.9321	0.911323	5.35784	0.609471	3.80906	0.608888	3.82035	0.913556	4.20836
0.400089	2.4416	0.294892	4.93034	0.705868	7.90624	0.914859	5.38006	0.611965	3.7607	0.611389	3.77183	0.916352	4.28033
0.401704	2.46333	0.298139	4.92808	0.711068	7.87745	0.918411	5.4039	0.614426	3.71311	0.613858	3.72406	0.919195	4.35052
0.403334	2.48559	0.301385	4.92576	0.716248	7.84587	0.92198	5.4294	0.616857	3.66632	0.616296	3.67708	0.922084	4.41891
0.404979	2.50817	0.30463	4.92346	0.721406	7.81143	0.925565	5.45669	0.619257	3.6204	0.618703	3.63101	0.925018	4.48536
0.406639	2.53106	0.307873	4.92106	0.72654	7.77422	0.929169	5.48579	0.621627	3.57548	0.62108	3.58581	0.927994	4.5499
0.408314	2.55436	0.311114	4.91862	0.731649	7.73418	0.932793	5.51674	0.623968	3.53147	0.623428	3.54156	0.931013	4.61248
0.410005	2.57792	0.314353	4.91621	0.736731	7.69121	0.936438	5.54965	0.626281	3.48849	0.625746	3.49835	0.934072	4.67301
0.411711	2.60157	0.317591	4.91377	0.741783	7.64544	0.940106	5.58449	0.628565	3.4466	0.628037	3.45624	0.93717	4.73162
0.413433	2.62545	0.320828	4.91125	0.746805	7.59687	0.943797	5.62134	0.630822	3.40582	0.6303	3.4152	0.940306	4.78812
0.41517	2.64957	0.324063	4.90864	0.751793	7.54549	0.947512	5.66024	0.633052	3.36616	0.632537	3.3753	0.943479	4.84251
0.416924	2.67369	0.327296	4.90604	0.756747	7.49127	0.951255	5.70115	0.635257	3.32774	0.634748	3.33661	0.946687	4.89484
0.418693	2.69782	0.330527	4.90345	0.761664	7.43422	0.955024	5.74404	0.637437	3.29056	0.636933	3.29903	0.949928	4.94502
0.420478	2.72206	0.333756	4.90086	0.766542	7.37437	0.958823	5.78899	0.639593	3.25457	0.639095	3.26279	0.953202	4.99317
0.42228	2.74635	0.336984	4.89821	0.77138	7.31181	0.962652	5.83592	0.641725	3.21984	0.641233	3.22779	0.956508	5.03913
0.424097	2.77061	0.34021	4.8955	0.776176	7.24651	0.966513	5.88473	0.643835	3.18637	0.643348	3.19397	0.959842	5.08288
0.42593	2.79481	0.343435	4.89279	0.780928	7.17848	0.970406	5.93551	0.645924	3.15415	0.645441	3.16152	0.963205	5.12461
0.42778	2.81892	0.346657	4.89009	0.785635	7.10796	0.974333	5.98809	0.647991	3.12323	0.647513	3.13033	0.966157	5.15931
0.429645	2.84294	0.349878	4.88734	0.790294	7.03479	0.978296	6.04229	0.650039	3.09363	0.649566	3.10039	0.968689	5.18759
0.431525	2.86692	0.353097	4.88457	0.794904	6.95915	0.981779	6.09084	0.652068	3.06531	0.651598	3.07175	0.970793	5.21002
0.433422	2.89081	0.356314	4.88184	0.799463	6.88114	0.98477	6.13315	0.654078	3.03826	0.653613	3.04443	0.972463	5.22716
0.435334	2.91452	0.359529	4.87907	0.803971	6.80086	0.987259	6.16883	0.656071	3.01251	0.65561	3.01839	0.973694	5.2393
0.437262	2.93808	0.362743	4.87629	0.808424	6.71846	0.989237	6.19743	0.658047	2.98803	0.65759	2.99356	0.974484	5.24712
0.439206	2.96151	0.365954	4.8735	0.812823	6.63396	0.990698	6.21842	0.660008	2.96482	0.659554	2.97007	0.975621	5.25813
0.441164	2.98477	0.369164	4.87066	0.817165	6.54754	0.991635	6.23209	0.661954	2.9428	0.661503	2.94781	0.97686	5.26964
0.443138	3.00785	0.372372	4.86784	0.82145	6.45942	0.992987	6.2519	0.663885	2.92205	0.663438	2.92678	0.978548	5.28505
0.445128	3.03068	0.375578	4.86503	0.825676	6.36979	0.99446	6.27344	0.665804	2.90262	0.66536	2.907	0.980691	5.30358
0.447132	3.05339	0.378782	4.86223	0.829843	6.27873	0.996472	6.30318	0.66771	2.88425	0.667269	2.88841	0.983292	5.32502
0.449151	3.07587	0.381985	4.85937	0.833949	6.18643	0.999031	6.34087	0.669604	2.86709	0.669166	2.87098	0.986356	5.34874
0.451185	3.0981	0.385185	4.85655	0.837994	6.0931	1.00215	6.3637	0.671488	2.8511	0.671051	2.85471	0.989889	5.37399
0.453233	3.12019	0.388384	4.85369	0.841978	5.99894			0.673361	2.83622	0.672927	2.83958	0.993437	5.39717
0.455296	3.14201	0.39158	4.85081	0.845899	5.90422			0.675225	2.82252	0.674793	2.82559	0.997	5.41835
0.457373	3.16353	0.394775	4.84802	0.849757	5.80905			0.67708	2.80986	0.67665	2.8127	1.00058	5.42844
0.459464	3.18486	0.397968	4.84518	0.853553	5.71367			0.678927	2.7982	0.678499	2.80081		
0.461569	3.20599	0.401159	4.8423	0.857286	5.61833			0.680767	2.78761	0.68034	2.79		
0.463688	3.22685	0.404348	4.83942	0.860956	5.52317			0.6826	2.77806	0.682175	2.78019		
0.465821	3.24749	0.407536	4.83658	0.864563	5.42846			0.684427	2.76946	0.684004	2.77135		
0.467967	3.26786	0.410721	4.83376	0.868108	5.33429			0.686249	2.76184	0.685827	2.76351		
0.470127	3.28793	0.413905	4.8309	0.871592	5.2409			0.688066	2.75508	0.687645	2.75659		
0.4723	3.30776	0.417086	4.82807	0.875014	5.14853			0.689879	2.74921	0.689459	2.75054		
0.474485	3.32736	0.420266	4.82521	0.878375	5.05723			0.691689	2.74426	0.691269	2.74534		
0.476684	3.34674	0.423444	4.82232	0.881677	4.96725			0.693495	2.74018	0.693076	2.74103		
0.478895	3.3658	0.42662	4.81954	0.88492	4.87871			0.695299	2.73684	0.694881	2.73753		
0.481119	3.3846	0.429794	4.81669	0.888106	4.79171			0.697101	2.73429	0.696683	2.73484		
0.483355	3.40317	0.432967	4.81382	0.891234	4.70636			0.698902	2.73255	0.698484	2.73293		
0.485603	3.42147	0.436137	4.81104	0.894307	4.62277			0.700702	2.73153	0.700284	2.73167		
0.487863	3.43952	0.439306	4.80825	0.897325	4.5411			0.702501	2.73117	0.702083	2.73119		
0.490135	3.45735	0.442473	4.8054	0.90029	4.46132			0.7043	2.73151	0.703883	2.73142		
0.492418	3.47487	0.445638	4.80258	0.903203	4.38357			0.7061	2.73256	0.705682	2.73225		
0.494713	3.49212	0.448801	4.79977	0.906066	4.30792			0.707901	2.73417	0.707483	2.73371		
0.497019	3.50918	0.451962	4.79697	0.908879	4.23437			0.709703	2.73643	0.709284	2.73583		
0.499337	3.52595	0.455121	4.79417	0.911645	4.16294			0.711506	2.73927	0.711088	2.73855		
0.501665	3.54247	0.458279	4.79137	0.914365	4.09361			0.713312	2.74265	0.712893	2.74183		
0.504004	3.5587	0.461434	4.78863	0.917039	4.02653			0.71512	2.74657	0.7147	2.74564		
0.506354	3.57474	0.464588	4.78586	0.91967	3.9616			0.716931	2.75102	0.71651	2.74993		
0.508715	3.59053	0.46774	4.78307	0.922259	3.89879			0.718745	2.75599	0.718324	2.75477		
0.511085	3.60604	0.47089	4.78033	0.924807	3.83818			0.720562	2.76137	0.72014	2.76009		
0.513466	3.62135	0.474039	4.77762	0.927316	3.7797			0.722383	2.76722	0.72196	2.76581		
0.515857	3.63641	0.477186	4.77486	0.929787	3.72332			0.724208	2.77352	0.723784	2.77203		
0.518257	3.65125	0.48033	4.77208	0.932222	3.66908			0.726038	2.78023	0.725613	2.77866		
