Sym0		Asym0		Sym1		Asym1		Asym2	
340  Points		338  Points		219  Points		291  Points		291  Points	
Freq (MHz)	Vgr (m/ms)	Freq (MHz)	Vgr (m/ms)	Freq (MHz)	Vgr (m/ms)	Freq (MHz)	Vgr (m/ms)	Freq (MHz)	Vgr (m/ms)
0.00357851	9.01365	0.000203138	0.405627	0.459114	-0.0283426	0.353564	0.157966	0.35356	0.13984
0.00911597	9.01292	0.000452331	0.485307	0.459097	-0.0445149	0.353661	0.239376	0.353646	0.221293
0.0146525	9.01094	0.000799426	0.644148	0.459059	-0.0768144	0.353859	0.401855	0.353832	0.383899
0.0201876	9.00799	0.00124379	0.801881	0.459002	-0.108646	0.354155	0.563527	0.354117	0.545715
0.0257205	9.00409	0.00178468	0.958283	0.458926	-0.139874	0.354551	0.724256	0.354502	0.706508
0.0312507	8.99928	0.00242121	1.11291	0.45883	-0.17034	0.355045	0.883652	0.354986	0.866033
0.0367778	8.99356	0.0031521	1.26567	0.458717	-0.199725	0.355637	1.04138	0.355566	1.02402
0.042301	8.98679	0.00397632	1.41633	0.458585	-0.228062	0.356325	1.19733	0.356244	1.18016
0.0478197	8.97901	0.00489233	1.5646	0.458436	-0.255076	0.357108	1.35118	0.357016	1.33425
0.0533333	8.97023	0.00589871	1.7104	0.458272	-0.280559	0.357985	1.50269	0.357883	1.48604
0.0588412	8.96044	0.00699386	1.85349	0.458092	-0.304422	0.358954	1.65164	0.358842	1.63523
0.0643429	8.94953	0.00817606	1.99371	0.457898	-0.326488	0.360014	1.79782	0.359892	1.78177
0.0698374	8.93749	0.0094435	2.13097	0.457691	-0.346628	0.361163	1.9411	0.361031	1.92534
0.0753242	8.9244	0.0107943	2.2651	0.457472	-0.364693	0.362399	2.08128	0.362258	2.06585
0.0808026	8.91011	0.0122266	2.39596	0.457242	-0.380496	0.36372	2.21823	0.36357	2.20324
0.0862719	8.89453	0.0137382	2.5236	0.457004	-0.393886	0.365125	2.35183	0.364965	2.33719
0.0917312	8.87768	0.0153273	2.64792	0.456758	-0.40478	0.36661	2.48197	0.366441	2.46768
0.0971798	8.85955	0.0169917	2.76871	0.456507	-0.413017	0.368174	2.60852	0.367997	2.5947
0.102617	8.84006	0.0187292	2.88611	0.456251	-0.418495	0.369815	2.73143	0.369629	2.71801
0.108041	8.81918	0.0205378	3.00005	0.455993	-0.421119	0.37153	2.85073	0.371337	2.83767
0.113453	8.79675	0.0224153	3.11053	0.455734	-0.420703	0.373318	2.96626	0.373116	2.95368
0.11885	8.77277	0.0243596	3.21752	0.455476	-0.417205	0.375175	3.07802	0.374966	3.06585
0.124232	8.74714	0.0263686	3.32109	0.455221	-0.410431	0.3771	3.18603	0.376883	3.17422
0.129597	8.71976	0.0284402	3.42127	0.454971	-0.400327	0.379089	3.29029	0.378866	3.2789
0.134946	8.69066	0.0305722	3.51799	0.454729	-0.386784	0.381142	3.39075	0.380912	3.37983
0.140275	8.65967	0.0327627	3.61146	0.454496	-0.369583	0.383256	3.48747	0.383019	3.47696
0.145586	8.62668	0.0350096	3.70164	0.454275	-0.348733	0.385427	3.58049	0.385184	3.57036
0.150875	8.59159	0.0373108	3.7886	0.454068	-0.324138	0.387655	3.6698	0.387405	3.66007
0.156142	8.55428	0.0396646	3.87243	0.453877	-0.295608	0.389936	3.75554	0.389681	3.74619
0.161385	8.51466	0.0420688	3.95312	0.453705	-0.262986	0.392269	3.83762	0.392008	3.82868
0.166604	8.47262	0.0445217	4.03085	0.453554	-0.226289	0.394652	3.91613	0.394385	3.90757
0.171795	8.42799	0.0470215	4.10567	0.453426	-0.185329	0.397081	3.99117	0.396809	3.98305
0.176959	8.38069	0.0495663	4.17757	0.453326	-0.139954	0.399555	4.06283	0.399279	4.05503
0.182093	8.33054	0.0521544	4.24671	0.453255	-0.0900805	0.402073	4.13106	0.401792	4.12368
0.187195	8.27733	0.0547841	4.31324	0.453215	-0.0355416	0.404631	4.196	0.404346	4.18901
0.192263	8.221	0.057454	4.37709	0.453211	0.0238324	0.407228	4.25778	0.406939	4.25101
0.197296	8.16134	0.0601622	4.43838	0.453245	0.0881002	0.409863	4.31626	0.409569	4.30993
0.202291	8.09821	0.0629073	4.49731	0.453319	0.157431	0.412532	4.37167	0.412234	4.36568
0.207246	8.03138	0.0656879	4.55386	0.453438	0.232002	0.415234	4.42407	0.414933	4.41841
0.212159	7.96071	0.0685026	4.60807	0.453604	0.311943	0.417968	4.47344	0.417663	4.46812
0.217027	7.886	0.0713498	4.66008	0.453821	0.397403	0.42073	4.51987	0.420423	4.51488
0.221848	7.80713	0.0742284	4.71001	0.454092	0.488458	0.423521	4.56351	0.42321	4.55886
0.226619	7.72391	0.0771369	4.75787	0.454421	0.585372	0.426338	4.60436	0.426024	4.59994
0.231338	7.63612	0.0800743	4.80373	0.454812	0.688227	0.429178	4.64241	0.428862	4.63834
0.236002	7.54363	0.0830392	4.84767	0.455267	0.797078	0.432042	4.67785	0.431723	4.67405
0.240607	7.44629	0.0860305	4.8898	0.455791	0.912144	0.434926	4.71063	0.434605	4.70714
0.245151	7.34402	0.0890472	4.93018	0.456388	1.03353	0.437829	4.74088	0.437507	4.73766
0.24963	7.23668	0.0920882	4.96884	0.457061	1.16123	0.440751	4.76862	0.440426	4.76561
0.254042	7.12418	0.0951523	5.00584	0.457815	1.29533	0.443689	4.79387	0.443362	4.79117
0.258384	7.00648	0.0982387	5.0413	0.458652	1.4358	0.446641	4.81671	0.446313	4.81431
0.262651	6.8836	0.101346	5.07524	0.459579	1.58267	0.449607	4.83719	0.449278	4.83504
0.266842	6.75558	0.104475	5.10767	0.460597	1.73588	0.452584	4.85537	0.452254	4.85351
0.270952	6.62252	0.107622	5.13876	0.461712	1.89525	0.455573	4.8713	0.455241	4.86968
0.274979	6.48456	0.110789	5.16852	0.462926	2.06058	0.45857	4.88504	0.458237	4.88358
0.278919	6.34195	0.113973	5.19693	0.464243	2.23175	0.461575	4.89653	0.461241	4.89538
0.282771	6.19503	0.117174	5.2241	0.465668	2.40834	0.464586	4.90586	0.464252	4.90498
0.286531	6.04402	0.120391	5.2501	0.467202	2.59004	0.467602	4.91317	0.467268	4.91242
0.290197	5.8894	0.123625	5.27501	0.46885	2.77637	0.470623	4.91836	0.470288	4.91784
0.293767	5.73178	0.126873	5.29873	0.470614	2.96675	0.473646	4.92151	0.47331	4.92125
0.29724	5.5716	0.130135	5.32139	0.472495	3.16067	0.47667	4.92271	0.476335	4.92263
0.300613	5.40953	0.133411	5.34305	0.474497	3.35747	0.479694	4.9219	0.479359	4.92206
0.303886	5.24622	0.1367	5.36371	0.476621	3.55646	0.482717	4.91915	0.482382	4.91958
0.307059	5.08246	0.140001	5.38348	0.478867	3.75684	0.485738	4.91454	0.485403	4.91518
0.310131	4.91898	0.143315	5.40236	0.481237	3.95789	0.488756	4.90811	0.488421	4.90893
0.313103	4.75644	0.146639	5.42035	0.48373	4.1587	0.491769	4.89979	0.491435	4.90087
0.315975	4.59573	0.149974	5.43745	0.486346	4.35849	0.494776	4.88971	0.494443	4.89097
0.318749	4.43761	0.15332	5.45377	0.489085	4.55659	0.497776	4.87789	0.497444	4.87928
0.321427	4.28265	0.156675	5.4693	0.491945	4.75218	0.500769	4.86434	0.500438	4.86589
0.324011	4.13168	0.16004	5.48413	0.494924	4.94441	0.503753	4.84903	0.503423	4.85079
0.326504	3.98526	0.163414	5.49826	0.49802	5.13272	0.506727	4.83207	0.506398	4.83402
0.328908	3.84391	0.166796	5.51162	0.501231	5.31651	0.50969	4.81358	0.509362	4.81569
0.331227	3.70818	0.170186	5.52436	0.504552	5.49514	0.512642	4.79338	0.512315	4.79571
0.333464	3.57844	0.173583	5.5365	0.507982	5.66823	0.51558	4.77164	0.515255	4.77418
0.335624	3.45504	0.176988	5.54801	0.511517	5.83537	0.518504	4.74849	0.518181	4.75111
0.337709	3.33819	0.1804	5.55892	0.515152	5.99614	0.521414	4.72374	0.521092	4.72652
0.339725	3.22813	0.183818	5.5693	0.518884	6.15039	0.524308	4.69756	0.523988	4.70055
0.341676	3.12487	0.186802	5.5778	0.522709	6.29806	0.527186	4.67009	0.526868	4.67318
0.343565	3.02852	0.189349	5.58479	0.526622	6.43889	0.530046	4.64114	0.52973	4.64441
0.345397	2.93914	0.191458	5.59048	0.53062	6.57281	0.532889	4.61088	0.532575	4.61432
0.347176	2.85645	0.193127	5.59472	0.534698	6.70002	0.535712	4.57948	0.5354	4.58303
0.348906	2.78048	0.194355	5.59765	0.538853	6.8205	0.538515	4.54678	0.538206	4.55042
0.350592	2.71109	0.195141	5.59965	0.543079	6.93427	0.541298	4.51282	0.540991	4.51664
0.352237	2.64794	0.196272	5.60235	0.547373	7.04162	0.54406	4.47788	0.543755	4.48184
0.353846	2.59095	0.197501	5.60521	0.551731	7.14258	0.5468	4.44189	0.546498	4.44591
0.355421	2.53984	0.199174	5.60922	0.556149	7.23743	0.549518	4.40477	0.549218	4.40893
0.356966	2.49439	0.201292	5.61381	0.560623	7.32637	0.552212	4.36675	0.551915	4.37107
0.358486	2.45435	0.203855	5.61921	0.56515	7.4095	0.554883	4.32791	0.554246	4.33729
0.359982	2.41938	0.206865	5.62533	0.569727	7.48713	0.557191	4.29334	0.556219	4.30809
0.361458	2.38932	0.210323	5.63194	0.57435	7.55941	0.559144	4.26339	0.55784	4.28346
0.362918	2.36385	0.213785	5.63814	0.579015	7.62666	0.560748	4.23838	0.559115	4.26395
0.364363	2.34269	0.217251	5.64396	0.58372	7.68908	0.562009	4.21847	0.560049	4.24936
0.365796	2.32568	0.22072	5.64931	0.588463	7.74682	0.562933	4.20365	0.560645	4.23993
0.36722	2.31243	0.224192	5.65438	0.592623	7.79363	0.563523	4.19413	0.5615	4.22661
0.368456	2.30378	0.227667	5.65908	0.596188	7.83095	0.564368	4.18045	0.562425	4.21183
0.369506	2.29841	0.231145	5.66337	0.599149	7.86012	0.565284	4.16535	0.563679	4.19148
0.370372	2.29539	0.234626	5.6674	0.601498	7.88197	0.566524	4.14477	0.565256	4.16576
0.371057	2.29376	0.238109	5.67109	0.603229	7.89753	0.568083	4.1187	0.56715	4.13437
0.37156	2.29317	0.241594	5.67443	0.604339	7.9072	0.569955	4.08685	0.569354	4.09713
0.371882	2.29292	0.245081	5.67754	0.605936	7.92062	0.572133	4.04919	0.571857	4.05397
0.372345	2.29278	0.248569	5.68027	0.607676	7.9348	0.574607	4.0056	0.574335	4.01045
0.372848	2.29314	0.25206	5.68274	0.610046	7.95316	0.577055	3.96176	0.576785	3.96664
0.373532	2.29417	0.255552	5.68503	0.613052	7.9753	0.579475	3.91768	0.579208	3.92263
0.374398	2.29637	0.259045	5.68696	0.616697	8.00034	0.581868	3.87348	0.581605	3.87841
0.375447	2.30019	0.262539	5.68864	0.620988	8.02719	0.584234	3.82916	0.583974	3.83403
0.37668	2.30651	0.266034	5.69009	0.625928	8.0549	0.586573	3.78485	0.586315	3.78973
0.378099	2.31569	0.269531	5.69126	0.630885	8.07947	0.588885	3.74058	0.58863	3.74548
0.379525	2.32694	0.273027	5.69224	0.635856	8.10092	0.591169	3.69646	0.590917	3.7013
0.380959	2.34017	0.276524	5.693	0.640838	8.11936	0.593427	3.65251	0.593178	3.65739
0.382401	2.35518	0.280022	5.69355	0.645832	8.13486	0.595657	3.60888	0.595411	3.61377
0.383852	2.3719	0.28352	5.69388	0.650834	8.1475	0.597861	3.56568	0.597618	3.57042
0.385315	2.39009	0.287018	5.69393	0.655842	8.15737	0.600038	3.52281	0.599798	3.52752
0.386789	2.40963	0.290516	5.69385	0.660856	8.16453	0.602189	3.48038	0.601952	3.48508
0.388276	2.4305	0.294014	5.69359	0.665874	8.16911	0.604314	3.43856	0.60408	3.44314
0.389775	2.45266	0.297512	5.69306	0.670894	8.17106	0.606414	3.39738	0.606183	3.40196
0.391289	2.47579	0.301009	5.69242	0.675914	8.17043	0.608489	3.35685	0.60826	3.36132
0.392817	2.49991	0.304506	5.69159	0.680932	8.16734	0.610539	3.31704	0.610313	3.32139
0.394361	2.52502	0.308002	5.69057	0.685949	8.16174	0.612564	3.27797	0.612341	3.28227
0.39592	2.55085	0.311498	5.68933	0.690961	8.1536	0.614566	3.23978	0.614346	3.24393
0.397495	2.57742	0.314993	5.68794	0.695967	8.14304	0.616545	3.20246	0.616327	3.20655
0.399087	2.60471	0.318486	5.68647	0.700966	8.13009	0.618501	3.16603	0.618285	3.17009
0.400695	2.63257	0.321979	5.68478	0.705956	8.11468	0.620435	3.13066	0.620222	3.13453
0.402321	2.66088	0.325471	5.68294	0.710936	8.09675	0.622348	3.09625	0.622137	3.09997
0.403965	2.6897	0.328962	5.68097	0.715905	8.0764	0.624239	3.06283	0.624031	3.06648
0.405626	2.719	0.332451	5.67881	0.72086	8.05357	0.626111	3.03057	0.625904	3.03407
0.407305	2.74858	0.335939	5.67657	0.7258	8.02826	0.627963	2.99939	0.627759	3.00276
0.409003	2.77848	0.339426	5.67412	0.730724	8.00045	0.629796	2.9693	0.629594	2.97261
0.410719	2.80865	0.342911	5.67156	0.73563	7.97005	0.631611	2.94043	0.631411	2.94359
0.412454	2.83895	0.346395	5.66889	0.740516	7.93707	0.633409	2.91272	0.633211	2.9157
0.414207	2.86949	0.349876	5.666	0.745382	7.90154	0.63519	2.88615	0.634993	2.88904
0.41598	2.90019	0.353356	5.66305	0.750225	7.86339	0.636955	2.86081	0.63676	2.8636
0.417771	2.93093	0.356834	5.66003	0.755044	7.82254	0.638705	2.83675	0.638512	2.83932
0.419581	2.96174	0.360311	5.65679	0.759836	7.77896	0.640441	2.81384	0.640249	2.8163
0.42141	2.99258	0.363785	5.65345	0.764601	7.73267	0.642162	2.79217	0.641972	2.79457
0.423258	3.02345	0.367257	5.65006	0.769337	7.68365	0.643871	2.77178	0.643683	2.77399
0.425125	3.05426	0.370727	5.64648	0.774042	7.63176	0.645568	2.75258	0.645381	2.75464
0.427011	3.08505	0.374195	5.64274	0.778714	7.57704	0.647253	2.73466	0.647067	2.73659
0.428915	3.11572	0.37766	5.63893	0.783352	7.51947	0.648928	2.71797	0.648743	2.71972
0.430839	3.14627	0.381123	5.63502	0.787953	7.45909	0.650593	2.70241	0.650409	2.70407
0.432781	3.17677	0.384584	5.63107	0.792517	7.39574	0.652249	2.68813	0.652065	2.68964
0.434742	3.20712	0.388042	5.62693	0.79704	7.32952	0.653896	2.67511	0.653714	2.67643
0.436722	3.23724	0.391498	5.62264	0.801523	7.26042	0.655535	2.66315	0.655354	2.66443
0.43872	3.26724	0.39495	5.61832	0.805961	7.18832	0.657168	2.65245	0.656987	2.6536
0.440736	3.29706	0.398401	5.61389	0.810355	7.11346	0.658794	2.64294	0.658614	2.64397
0.442771	3.32664	0.401848	5.60934	0.814701	7.03581	0.660415	2.63451	0.660236	2.63543
0.444823	3.35603	0.405293	5.60468	0.818999	6.95528	0.662031	2.62725	0.661852	2.62799
0.446894	3.38517	0.408735	5.5999	0.823247	6.87203	0.663643	2.62111	0.663465	2.62177
0.448983	3.41407	0.412173	5.59507	0.827443	6.78619	0.665252	2.6161	0.665074	2.61661
0.451089	3.44274	0.415609	5.5901	0.831585	6.69779	0.666858	2.61216	0.66668	2.61247
0.453213	3.47112	0.419042	5.58506	0.835672	6.60693	0.668461	2.60918	0.668284	2.60946
0.455354	3.4992	0.422471	5.57993	0.839703	6.5138	0.670064	2.60731	0.669886	2.60751
0.457512	3.52707	0.425898	5.5747	0.843676	6.41841	0.671665	2.60648	0.671488	2.60654
0.459687	3.55466	0.429321	5.56942	0.847589	6.32101	0.673266	2.60662	0.673089	2.60655
0.46188	3.58196	0.432741	5.56395	0.851442	6.22188	0.674868	2.60775	0.67469	2.6075
0.464089	3.60888	0.436157	5.55843	0.855234	6.12106	0.67647	2.60975	0.676292	2.60947
0.466314	3.63556	0.43957	5.55284	0.858963	6.01877	0.678074	2.6127	0.677896	2.6124
0.468556	3.66195	0.44298	5.54716	0.862629	5.91525	0.67968	2.61662	0.679502	2.61615
0.470813	3.68797	0.446386	5.54138	0.866231	5.81074	0.681289	2.62141	0.681111	2.6208
0.473087	3.7137	0.449789	5.53549	0.869769	5.70555	0.682901	2.62703	0.682722	2.62634
0.475376	3.73912	0.453187	5.52954	0.873241	5.5998	0.684517	2.63345	0.684338	2.63272
0.477681	3.76427	0.456583	5.52351	0.876649	5.49378	0.686137	2.64071	0.685957	2.63986
0.480001	3.78906	0.459974	5.51745	0.879992	5.38784	0.687762	2.64878	0.687581	2.64781
0.482337	3.81345	0.463362	5.51119	0.883269	5.28205	0.689391	2.6576	0.689211	2.65657
0.484687	3.83759	0.466746	5.5049	0.886482	5.17679	0.691027	2.66717	0.690845	2.66605
0.487052	3.86143	0.470126	5.49853	0.88963	5.07234	0.692669	2.6774	0.692486	2.67629
0.489431	3.88491	0.473501	5.49207	0.892714	4.96874	0.694317	2.6884	0.694134	2.68719
0.491825	3.90803	0.476874	5.48556	0.895735	4.8664	0.695972	2.70007	0.695788	2.69875
0.494233	3.93087	0.480241	5.47892	0.898693	4.76546	0.697634	2.7124	0.69745	2.71097
0.496655	3.95339	0.483605	5.47221	0.90159	4.66612	0.699304	2.72534	0.699119	2.72386
0.49909	3.97554	0.486965	5.46547	0.904426	4.56864	0.700983	2.73886	0.700796	2.73735
0.50154	3.99739	0.490321	5.45865	0.907203	4.47302	0.70267	2.75307	0.702482	2.75143
0.504002	4.01892	0.493672	5.45169	0.909922	4.37955	0.704365	2.76778	0.704177	2.76614
0.506478	4.04007	0.497019	5.44471	0.912584	4.28834	0.70607	2.78307	0.705881	2.78132
0.508966	4.06092	0.500362	5.43767	0.915191	4.19941	0.707785	2.79889	0.707594	2.79708
0.511467	4.08157	0.5037	5.43054	0.917744	4.11301	0.709509	2.81518	0.709318	2.8134
0.513981	4.10177	0.507034	5.4233	0.920245	4.02916	0.711244	2.83199	0.711051	2.83016
0.516507	4.12165	0.510364	5.41602	0.922695	3.94786	0.712989	2.84934	0.712795	2.84738
0.519045	4.14126	0.513689	5.40872	0.925095	3.86922	0.714745	2.86712	0.71455	2.86504
0.521595	4.1605	0.517009	5.40129	0.927449	3.7933	0.716512	2.88528	0.716315	2.88325
0.524157	4.17951	0.520325	5.3938	0.929756	3.72007	0.71829	2.90386	0.718092	2.9018
0.52673	4.19818	0.523637	5.38627	0.93202	3.64952	0.72008	2.92287	0.719881	2.92074
0.529315	4.21651	0.526943	5.37868	0.93424	3.5817	0.721881	2.94232	0.721681	2.94021
0.531911	4.23461	0.530245	5.371	0.93642	3.51664	0.723695	2.96215	0.723493	2.95994
0.534518	4.25233	0.533543	5.36327	0.938561	3.45422	0.725521	2.98229	0.725318	2.97997
0.537136	4.26974	0.536835	5.35546	0.940664	3.39436	0.727359	3.00274	0.727155	3.00042
0.539764	4.28695	0.540123	5.34767	0.942732	3.33721	0.72921	3.02352	0.729004	3.02126
0.542403	4.30377	0.543406	5.33977	0.944765	3.28259	0.731074	3.04463	0.730867	3.04234
0.545052	4.32029	0.546684	5.33182	0.946765	3.23045	0.732951	3.06607	0.732742	3.06366
0.547712	4.3366	0.549957	5.32385	0.948734	3.18089	0.734841	3.08778	0.734631	3.08531
0.550381	4.35259	0.553225	5.31581	0.950673	3.13362	0.736745	3.10975	0.736533	3.10724
0.55306	4.3683	0.556488	5.30774	0.952584	3.08871	0.738662	3.13189	0.738449	3.12943
0.555748	4.38377	0.559747	5.29959	0.954468	3.0461	0.740593	3.15435	0.740378	3.15185
0.558446	4.39889	0.563	5.29141	0.956327	3.00569	0.742538	3.17702	0.742322	3.17451
0.561153	4.41372	0.566248	5.28321	0.958161	2.96748	0.744497	3.19985	0.744279	3.19738
0.563869	4.42836	0.569491	5.275	0.959973	2.93133	0.746469	3.22299	0.74625	3.22043
0.566594	4.44268	0.572729	5.26672	0.961763	2.89715	0.748457	3.24622	0.748236	3.24362
0.569327	4.45672	0.575962	5.25842	0.963533	2.86495	0.750458	3.26961	0.750235	3.26704
0.57207	4.47057	0.57919	5.25005	0.965283	2.83469	0.752474	3.29324	0.75225	3.29064
0.57482	4.48411	0.582413	5.2417	0.967016	2.80623	0.754504	3.317	0.754279	3.31432
0.577579	4.49743	0.585631	5.23331	0.968731	2.77951	0.756549	3.34088	0.756322	3.33821
0.580346	4.51048	0.588843	5.22489	0.970431	2.75454	0.758609	3.36487	0.75838	3.36221
0.583121	4.52322	0.59205	5.21651	0.972116	2.73117	0.760684	3.38897	0.760453	3.38626
0.585904	4.53582	0.595252	5.2081	0.973787	2.70937	0.762773	3.41313	0.762541	3.41045
0.588694	4.54811	0.598449	5.19968	0.975445	2.68915	0.764877	3.43743	0.764644	3.43477
0.591492	4.56014	0.601641	5.19119	0.977091	2.67037	0.766997	3.46185	0.766761	3.45914
0.594297	4.57205	0.604828	5.18272	0.978726	2.65298	0.769131	3.48634	0.768894	3.4836
0.59711	4.58361	0.608009	5.17427	0.98035	2.63696	0.77128	3.5108	0.771041	3.50811
0.599929	4.59495	0.611185	5.16582	0.981966	2.62228	0.773445	3.53536	0.773204	3.53258
0.602755	4.60611	0.614356	5.15743	0.983572	2.60883	0.775624	3.55997	0.775382	3.5572
0.605589	4.61703	0.617522	5.14896	0.985171	2.59661	0.777819	3.58455	0.777575	3.58184
0.608428	4.6277	0.620683	5.14056	0.986763	2.5855	0.780028	3.60916	0.779783	3.60643
0.611275	4.63815	0.623838	5.13219	0.988348	2.57556	0.782253	3.6338	0.782006	3.63111
0.614127	4.64843	0.626989	5.12373	0.989927	2.56676	0.784493	3.65851	0.784244	3.65573
0.616986	4.65851	0.630134	5.1154	0.991502	2.55897	0.786748	3.68313	0.786498	3.68037
0.619851	4.66833	0.633274	5.10712	0.993071	2.55213	0.789019	3.70767	0.788766	3.70501
0.622722	4.67796	0.636409	5.09881	0.994637	2.54621	0.791304	3.73226	0.79105	3.72956
0.625599	4.68738	0.639539	5.09055	0.9962	2.54131	0.793604	3.75683	0.793349	3.7541
0.628481	4.69654	0.642663	5.08231	0.99776	2.53724	0.79592	3.78134	0.795663	3.77865
0.631369	4.70561	0.645783	5.07413	0.999317	2.53399	0.79825	3.80581	0.797991	3.80309
0.634263	4.71443	0.648898	5.06605	1.00087	2.53261	0.800596	3.83015	0.800335	3.82741
0.637162	4.72306	0.652008	5.05795			0.802956	3.85443	0.802694	3.85174
0.640066	4.73154	0.655113	5.04996			0.805332	3.87868	0.805068	3.87601
0.642975	4.73978	0.658213	5.04202			0.807722	3.9028	0.807456	3.90014
0.64589	4.74784	0.661308	5.03405			0.810127	3.9268	0.80986	3.92415
0.648809	4.7557	0.664398	5.02623			0.812547	3.95079	0.812278	3.94814
0.651733	4.76347	0.667483	5.01849			0.814981	3.97462	0.814711	3.97197
0.654662	4.77096	0.670564	5.01079			0.81743	3.99831	0.817158	3.99566
0.657595	4.77831	0.67364	5.00316			0.819894	4.02193	0.81962	4.01934
0.660533	4.78555	0.676711	4.99568			0.822372	4.04534	0.822097	4.04278
0.663475	4.79255	0.679778	4.98822			0.824865	4.06866	0.824588	4.06611
0.666421	4.79938	0.68284	4.98083			0.827371	4.09187	0.827093	4.08927
0.669372	4.80602	0.685898	4.97363			0.829892	4.11486	0.829612	4.1123
0.672326	4.81256	0.688951	4.96642			0.832427	4.13774	0.832145	4.13525
0.675285	4.819	0.692	4.95932			0.834976	4.16046	0.834693	4.15794
0.678247	4.82516	0.695045	4.95238			0.837539	4.18298	0.837254	4.18051
0.681213	4.83119	0.698085	4.94546			0.840116	4.20535	0.839829	4.2029
0.684183	4.83714	0.701121	4.93868			0.842706	4.22753	0.842418	4.22509
