Sym0		Asym0		Sym1		Sym2		Asym1		Asym2	
382  Points		387  Points		242  Points		154  Points		326  Points		176  Points	
Freq (MHz)	Vgr (m/ms)	Freq (MHz)	Vgr (m/ms)	Freq (MHz)	Vgr (m/ms)	Freq (MHz)	Vgr (m/ms)	Freq (MHz)	Vgr (m/ms)	Freq (MHz)	Vgr (m/ms)
0.000210242	7.44699	1.34556e-006	0.106249	0.444147	-0.823394	0.456731	1.13193	0.22825	0.234041	0.684654	0.00596633
0.00587536	7.44648	8.21717e-005	0.188215	0.44352	-1.07038	0.457592	1.40444	0.228428	0.336442	0.684658	0.00887528
0.0115397	7.44488	0.000287705	0.351497	0.442518	-1.46865	0.458868	1.86037	0.228762	0.540398	0.684667	0.0148214
0.0172024	7.44222	0.000616957	0.513366	0.441286	-1.70385	0.460423	2.16762	0.22925	0.74244	0.684681	0.0208828
0.0228627	7.43851	0.00106877	0.673217	0.439926	-1.83024	0.462166	2.37927	0.229891	0.942002	0.684699	0.0269956
0.0285197	7.4337	0.00164122	0.830287	0.438501	-1.89024	0.464043	2.5332	0.230683	1.1384	0.684722	0.0332112
0.0341727	7.42783	0.00233201	0.984127	0.43705	-1.90986	0.46602	2.65195	0.231623	1.33106	0.68475	0.0396321
0.0398208	7.42085	0.00313853	1.1342	0.435595	-1.90433	0.468078	2.74863	0.232708	1.51948	0.684782	0.0462846
0.0454632	7.41272	0.00405764	1.28006	0.434153	-1.88243	0.470202	2.83093	0.233935	1.7033	0.68482	0.0531308
0.0510989	7.40346	0.00508607	1.42134	0.432731	-1.8493	0.472385	2.9034	0.2353	1.88201	0.684863	0.0601853
0.0567272	7.39301	0.00622014	1.55769	0.431339	-1.80825	0.474619	2.96897	0.236798	2.05535	0.684912	0.0675665
0.062347	7.38136	0.00745602	1.68893	0.42998	-1.76122	0.476902	3.02951	0.238427	2.22309	0.684966	0.0752424
0.0679575	7.36845	0.00878977	1.81488	0.428659	-1.7096	0.479229	3.08626	0.240181	2.38499	0.685026	0.0832385
0.0735578	7.35421	0.0102173	1.93537	0.427379	-1.65425	0.481597	3.14003	0.242056	2.54104	0.685093	0.091606
0.0791466	7.33865	0.0117343	2.0503	0.426142	-1.59566	0.484006	3.19142	0.244047	2.69105	0.685165	0.100357
0.0847232	7.3217	0.0133367	2.15971	0.424951	-1.53438	0.486453	3.24081	0.24615	2.83498	0.685245	0.109518
0.0902862	7.30333	0.0150202	2.2636	0.423808	-1.47066	0.488937	3.28856	0.24836	2.97295	0.685332	0.119048
0.0958348	7.28344	0.0167807	2.36205	0.422714	-1.40457	0.491456	3.33499	0.250673	3.10493	0.685426	0.129048
0.101368	7.26195	0.018614	2.45516	0.421671	-1.33627	0.494011	3.38013	0.253084	3.231	0.685528	0.139541
0.106884	7.23882	0.0205161	2.54307	0.420681	-1.26587	0.496599	3.42413	0.255589	3.35138	0.685639	0.150568
0.112381	7.21398	0.0224831	2.62595	0.419745	-1.19341	0.49922	3.46717	0.258183	3.4661	0.685757	0.162037
0.117859	7.18735	0.0245113	2.70388	0.418865	-1.11883	0.501874	3.50931	0.260862	3.57535	0.685885	0.174032
0.123316	7.15877	0.0265969	2.77714	0.418043	-1.04216	0.50456	3.55062	0.263623	3.67928	0.686022	0.18663
0.128751	7.12825	0.0287366	2.84588	0.41728	-0.963344	0.507276	3.59118	0.26646	3.77808	0.686169	0.199716
0.134162	7.09563	0.0309268	2.91025	0.416577	-0.882326	0.510023	3.63093	0.269371	3.87188	0.686326	0.213419
0.139547	7.06082	0.0331644	2.97056	0.415937	-0.799047	0.512801	3.67006	0.272351	3.9609	0.686494	0.227729
0.144904	7.02367	0.0354464	3.02694	0.415361	-0.713313	0.515607	3.7085	0.275397	4.0453	0.686673	0.242623
0.150233	6.98409	0.0377698	3.0796	0.414852	-0.62518	0.518443	3.74628	0.278506	4.12528	0.686863	0.258149
0.15553	6.94196	0.0401318	3.12877	0.41441	-0.534578	0.521307	3.78352	0.281674	4.201	0.687065	0.274311
0.160795	6.89709	0.0425301	3.17464	0.414039	-0.441195	0.524199	3.82015	0.284897	4.27262	0.68728	0.291115
0.166024	6.84941	0.0449619	3.21731	0.413739	-0.345027	0.527119	3.85619	0.288174	4.34034	0.687508	0.308578
0.171216	6.79873	0.047425	3.25707	0.413514	-0.245984	0.530066	3.89166	0.291501	4.40427	0.68775	0.326729
0.176368	6.74492	0.0499174	3.29407	0.413365	-0.14388	0.53304	3.92663	0.294875	4.46458	0.688005	0.345538
0.181478	6.68779	0.0524368	3.32844	0.413295	-0.0385801	0.536041	3.96105	0.298294	4.52143	0.688276	0.365036
0.186543	6.62719	0.0549814	3.36038	0.413306	0.0700598	0.539067	3.99501	0.301754	4.57494	0.688561	0.385196
0.191561	6.56302	0.0575495	3.39	0.413401	0.182118	0.542119	4.02847	0.305254	4.62526	0.688862	0.406139
0.196528	6.49507	0.0601392	3.4175	0.413583	0.297783	0.545196	4.06138	0.308791	4.67253	0.689179	0.427752
0.201443	6.4232	0.062749	3.44297	0.413854	0.417164	0.548298	4.09386	0.312363	4.71685	0.689512	0.450077
0.206301	6.34657	0.0653775	3.46655	0.414218	0.540388	0.551424	4.12587	0.315968	4.75829	0.689863	0.473199
0.215836	6.18199	0.0680232	3.48842	0.414676	0.667622	0.554575	4.15744	0.319603	4.79694	0.690232	0.497017
0.220506	6.09385	0.0706849	3.50857	0.415234	0.798838	0.55775	4.18855	0.323266	4.83299	0.69062	0.5216
0.225107	6.00048	0.0733613	3.52715	0.415892	0.93407	0.560948	4.21919	0.326956	4.86652	0.691026	0.546904
0.229636	5.90264	0.0760513	3.54441	0.416655	1.07348	0.564169	4.24943	0.33067	4.89752	0.691452	0.573024
0.234088	5.80025	0.078754	3.56026	0.417525	1.21702	0.567413	4.27924	0.334407	4.92614	0.691898	0.599878
0.238461	5.69342	0.0814681	3.57484	0.418506	1.36462	0.57068	4.30863	0.338165	4.95244	0.692364	0.627481
0.24275	5.58221	0.0841929	3.5883	0.419601	1.51621	0.573969	4.33763	0.341942	4.97651	0.692852	0.655957
0.246954	5.4667	0.0869275	3.60069	0.420813	1.67164	0.577279	4.3662	0.345248	4.9958	0.693362	0.685191
0.251068	5.3472	0.0893179	3.61066	0.422145	1.83064	0.580612	4.39436	0.348075	5.0109	0.693895	0.715132
0.255089	5.224	0.0913606	3.61854	0.423598	1.993	0.583965	4.42217	0.35042	5.02248	0.69445	0.745952
0.259016	5.09735	0.0930531	3.62467	0.425177	2.1584	0.58734	4.44961	0.352277	5.03115	0.69503	0.777629
0.262845	4.96766	0.0943932	3.62934	0.426882	2.3264	0.590735	4.47669	0.353645	5.03719	0.695634	0.810037
0.266574	4.83547	0.0953797	3.63283	0.428716	2.49654	0.594151	4.5034	0.354521	5.04091	0.696262	0.843277
0.270202	4.70127	0.0960116	3.63486	0.430681	2.66827	0.597587	4.52974	0.355782	5.04614	0.696917	0.877375
0.273727	4.56571	0.0969205	3.6375	0.432776	2.84103	0.601043	4.55576	0.357154	5.05148	0.697597	0.91229
0.277148	4.42932	0.0979092	3.64053	0.435003	3.01413	0.604518	4.58143	0.359021	5.05822	0.698305	0.948033
0.280466	4.2928	0.0992551	3.64452	0.437362	3.18693	0.608013	4.60677	0.361387	5.06619	0.69904	0.984625
0.283679	4.15692	0.100959	3.6492	0.439852	3.35878	0.611527	4.63178	0.364253	5.07493	0.699803	1.02211
0.28679	4.02223	0.103023	3.65454	0.442472	3.5289	0.61506	4.65651	0.36762	5.08379	0.700595	1.06038
0.289799	3.88946	0.105448	3.66035	0.44486	3.67537	0.618612	4.68094	0.371491	5.09223	0.701416	1.09953
0.292708	3.75928	0.108235	3.66647	0.446972	3.79848	0.622182	4.70505	0.375368	5.09891	0.702268	1.13961
0.295519	3.63231	0.111026	3.672	0.448771	3.89873	0.62577	4.72886	0.379249	5.10378	0.70315	1.18048
0.298234	3.50908	0.113821	3.67696	0.450226	3.97711	0.629377	4.75245	0.383133	5.10689	0.704064	1.22222
0.300857	3.38998	0.11662	3.68141	0.451314	4.0342	0.633001	4.77576	0.387019	5.10822	0.705009	1.26488
0.303392	3.27558	0.119423	3.68544	0.452019	4.07025	0.636643	4.79879	0.390905	5.10785	0.705988	1.30839
0.305841	3.16626	0.122228	3.68902	0.453043	4.12171	0.640302	4.82161	0.39479	5.10578	0.707	1.35271
0.308209	3.06216	0.125035	3.69215	0.45417	4.17721	0.643978	4.84421	0.398673	5.10201	0.708046	1.39795
0.3105	2.96351	0.127845	3.69489	0.455728	4.25142	0.647672	4.86653	0.402552	5.09663	0.709127	1.4441
0.312718	2.87052	0.130657	3.69733	0.457736	4.34365	0.651383	4.88866	0.406427	5.08959	0.710243	1.49112
0.314867	2.78323	0.13347	3.69945	0.460222	4.45239	0.65511	4.91066	0.410296	5.08095	0.711396	1.53894
0.316952	2.70156	0.136285	3.70127	0.463215	4.57596	0.658854	4.93243	0.414158	5.07071	0.712585	1.58759
0.318978	2.62552	0.139102	3.70276	0.466749	4.7123	0.662614	4.95398	0.418011	5.05891	0.713811	1.63716
0.320947	2.55506	0.141919	3.704	0.470385	4.84246	0.666391	4.97538	0.421855	5.04557	0.715076	1.6876
0.322865	2.49004	0.144737	3.70507	0.474117	4.9662	0.670184	4.99665	0.425687	5.03064	0.716379	1.73878
0.324736	2.43022	0.147556	3.70583	0.477941	5.08347	0.673993	5.01784	0.429508	5.01421	0.717721	1.79082
0.326562	2.37545	0.150375	3.70644	0.481851	5.19404	0.677819	5.03886	0.433316	4.9963	0.719103	1.84367
0.32835	2.32546	0.153195	3.70687	0.485843	5.29794	0.68166	5.05975	0.43711	4.9769	0.720526	1.89727
0.330101	2.28012	0.156015	3.70705	0.489912	5.39528	0.685517	5.08053	0.440888	4.95603	0.72199	1.95161
0.331819	2.23921	0.158835	3.70713	0.494052	5.48612	0.68939	5.10127	0.44465	4.93371	0.723495	2.00676
0.333507	2.20244	0.161655	3.70709	0.498258	5.57055	0.693278	5.12195	0.448395	4.90995	0.725043	2.0626
0.33517	2.16952	0.164475	3.70679	0.502527	5.64879	0.697182	5.1425	0.452121	4.88483	0.726634	2.11911
0.336808	2.14029	0.167295	3.70647	0.506853	5.72096	0.701102	5.16305	0.455827	4.85837	0.728267	2.17625
0.338426	2.11457	0.170115	3.70604	0.511231	5.78727	0.705038	5.18361	0.459512	4.83052	0.729945	2.23402
0.340025	2.09201	0.172934	3.70546	0.515658	5.84793	0.708989	5.20411	0.463176	4.80135	0.731666	2.29242
0.341406	2.07468	0.175752	3.70477	0.520128	5.9031	0.712955	5.22465	0.466817	4.77093	0.733432	2.35127
0.342575	2.06169	0.17857	3.70402	0.524639	5.95311	0.716938	5.24518	0.470435	4.73926	0.735244	2.41065
0.343536	2.05207	0.181388	3.7032	0.529186	5.99808	0.720936	5.2657	0.474028	4.70638	0.7371	2.47049
0.344293	2.04508	0.184205	3.70225	0.533765	6.03819	0.724949	5.28629	0.477596	4.67231	0.739002	2.53069
0.344848	2.04025	0.187021	3.70128	0.538373	6.07376	0.728979	5.30694	0.481137	4.63711	0.74095	2.59126
0.345202	2.03752	0.189836	3.70026	0.543006	6.10491	0.733024	5.32768	0.484651	4.60086	0.742945	2.65212
0.345711	2.03382	0.19265	3.69916	0.547661	6.13184	0.737084	5.34845	0.488137	4.56353	0.744985	2.7132
0.346263	2.02976	0.195464	3.69803	0.552335	6.15472	0.741161	5.36927	0.491594	4.52522	0.747073	2.77436
0.347012	2.02498	0.198277	3.69684	0.557025	6.17374	0.745254	5.39028	0.495022	4.48598	0.749207	2.83568
0.347957	2.0197	0.201089	3.69557	0.561728	6.18917	0.749362	5.41139	0.498419	4.44586	0.751387	2.89706
0.349097	2.01415	0.203899	3.69431	0.566442	6.20096	0.752955	5.42978	0.501786	4.40489	0.753325	2.95042
0.35043	2.00913	0.206709	3.693	0.571163	6.20937	0.756028	5.44561	0.505121	4.36315	0.755005	2.99595
0.351956	2.00499	0.209518	3.69168	0.575889	6.21461	0.758576	5.45868	0.508424	4.32076	0.756414	3.03351
0.35348	2.00242	0.212326	3.69034	0.580618	6.21669	0.760595	5.46921	0.511695	4.27771	0.757541	3.06316
0.355003	2.00145	0.215133	3.68896	0.585347	6.21576	0.762082	5.47681	0.514932	4.23408	0.758376	3.08484
0.356526	2.00191	0.217938	3.68759	0.590075	6.21193	0.763035	5.48157	0.518137	4.18997	0.758913	3.09871
0.358049	2.00362	0.220743	3.68615	0.594798	6.20539	0.764406	5.48881	0.521307	4.14545	0.75969	3.11883
0.359574	2.00654	0.223547	3.68471	0.599516	6.19616	0.765898	5.4966	0.524444	4.10049	0.760541	3.14052
0.361102	2.0106	0.226349	3.68332	0.604226	6.18432	0.767931	5.50703	0.527546	4.05532	0.761707	3.16979
0.362633	2.01563	0.229151	3.68186	0.608925	6.17006	0.770508	5.52041	0.530614	4.00995	0.763196	3.20683
0.364168	2.02156	0.231951	3.68041	0.613613	6.15342	0.773632	5.53663	0.533647	3.96439	0.765021	3.25138
0.365709	2.02838	0.23475	3.67897	0.618287	6.13443	0.777308	5.55576	0.536645	3.91882	0.767194	3.30332
0.367254	2.03591	0.237548	3.67748	0.622946	6.11322	0.781543	5.5778	0.539609	3.87321	0.76973	3.36246
0.368806	2.04412	0.240345	3.67603	0.627588	6.08984	0.785795	5.60004	0.542538	3.82771	0.77231	3.42091
0.370364	2.05298	0.243141	3.67462	0.632212	6.06438	0.790063	5.62228	0.545433	3.7824	0.774934	3.47871
0.37193	2.06239	0.245936	3.67311	0.636815	6.03698	0.794349	5.6447	0.548293	3.73727	0.777602	3.53582
0.373502	2.07234	0.24873	3.67164	0.641397	6.00763	0.798651	5.66726	0.551119	3.69242	0.780314	3.59205
0.375083	2.08274	0.251522	3.67023	0.645955	5.9764	0.802971	5.68984	0.553911	3.64797	0.783068	3.64734
0.376671	2.09355	0.254314	3.66881	0.650489	5.94339	0.807308	5.71252	0.556669	3.60395	0.785863	3.70168
0.378268	2.10474	0.257104	3.66734	0.654998	5.90867	0.811663	5.73521	0.559394	3.56036	0.7887	3.75499
0.379873	2.11626	0.259894	3.66588	0.659479	5.87229	0.816034	5.75795	0.562086	3.51736	0.791576	3.80721
0.381488	2.12807	0.262682	3.66448	0.663932	5.83433	0.820423	5.78075	0.564746	3.47495	0.794492	3.85831
0.383111	2.14012	0.265469	3.66307	0.668356	5.79485	0.824829	5.80346	0.567373	3.43321	0.797446	3.90816
0.384744	2.15242	0.268255	3.66169	0.672749	5.75394	0.829253	5.82611	0.569969	3.39215	0.800438	3.95677
0.386386	2.1649	0.27104	3.66028	0.67711	5.71168	0.833693	5.84875	0.572534	3.35185	0.803466	4.00409
0.388038	2.17751	0.273824	3.6589	0.681439	5.66813	0.838151	5.87118	0.575069	3.31227	0.80653	4.05004
0.389699	2.19031	0.276607	3.65749	0.685734	5.62339	0.842626	5.89348	0.577573	3.27356	0.809628	4.09463
0.39137	2.20322	0.279389	3.65612	0.689995	5.57747	0.847118	5.91562	0.580049	3.23577	0.81276	4.13774
0.393051	2.21622	0.282169	3.6548	0.69422	5.53047	0.851626	5.9375	0.582497	3.19875	0.815924	4.17938
0.394742	2.22932	0.284949	3.65347	0.698409	5.48249	0.856152	5.95911	0.584916	3.16266	0.819119	4.21958
0.396443	2.24241	0.287728	3.65213	0.702561	5.4336	0.860693	5.98037	0.587308	3.12757	0.822344	4.25825
0.398154	2.2556	0.290506	3.65079	0.706676	5.3839	0.86525	6.00122	0.589674	3.09339	0.825597	4.29535
0.399875	2.26883	0.293283	3.64949	0.710752	5.3334	0.869824	6.0217	0.592015	3.06019	0.828879	4.33094
0.401606	2.28199	0.296058	3.64817	0.71479	5.28223	0.874412	6.04167	0.59433	3.02794	0.832187	4.36492
0.403347	2.29521	0.298833	3.64693	0.718789	5.23045	0.879016	6.06111	0.596622	2.9967	0.83552	4.39735
0.405098	2.30842	0.301607	3.64568	0.722748	5.17818	0.883634	6.07999	0.59889	2.96646	0.838877	4.42813
0.406859	2.32157	0.30438	3.64438	0.726667	5.12545	0.888266	6.09822	0.601135	2.93717	0.842257	4.4573
0.40863	2.33469	0.307152	3.64315	0.730546	5.07231	0.892912	6.11581	0.603358	2.90893	0.845659	4.48498
0.410411	2.34775	0.309923	3.64195	0.734385	5.01892	0.897571	6.13259	0.605561	2.88167	0.849081	4.51097
0.412202	2.36079	0.312693	3.64072	0.738182	4.96532	0.902242	6.1486	0.607743	2.85535	0.852522	4.53531
0.414003	2.37377	0.315462	3.63952	0.741939	4.91151	0.906926	6.16378	0.609905	2.83008	0.855981	4.55816
0.415813	2.38662	0.31823	3.63834	0.745655	4.85765	0.91162	6.17806	0.612049	2.80574	0.859457	4.57936
0.417634	2.39942	0.320997	3.63717	0.74933	4.80377	0.916325	6.19143	0.614174	2.78235	0.862948	4.59898
0.419464	2.41219	0.323764	3.636	0.752964	4.75001	0.92104	6.20372	0.616282	2.75994	0.866454	4.61708
0.421304	2.42485	0.326529	3.63483	0.756557	4.69635	0.925764	6.21503	0.618373	2.73842	0.869973	4.63354
0.423153	2.43737	0.329294	3.63375	0.760109	4.64283	0.930496	6.2253	0.620448	2.71788	0.873504	4.64849
0.425012	2.44978	0.332058	3.63263	0.763621	4.58966	0.935236	6.23438	0.622508	2.69819	0.877045	4.66198
0.42688	2.46213	0.334821	3.63149	0.767092	4.53674	0.939981	6.24229	0.624553	2.67938	0.880597	4.67388
0.428758	2.4744	0.337583	3.63038	0.770523	4.48422	0.944733	6.24902	0.626585	2.66149	0.884156	4.68432
0.430645	2.4865	0.340344	3.62928	0.773915	4.43209	0.949489	6.25449	0.628603	2.64439	0.887724	4.6933
0.432541	2.49852	0.343105	3.62824	0.777266	4.38041	0.954249	6.25862	0.630608	2.62812	0.891297	4.70075
0.434446	2.51045	0.345865	3.62723	0.780579	4.32932	0.959011	6.26149	0.632601	2.61272	0.894876	4.70686
0.436361	2.5222	0.348624	3.62614	0.783853	4.2787	0.963775	6.26311	0.634583	2.59807	0.898458	4.71157
0.438284	2.53386	0.351382	3.6251	0.787089	4.22872	0.96854	6.26329	0.636554	2.58415	0.902044	4.71482
0.440216	2.54538	0.354139	3.62409	0.790287	4.17942	0.973305	6.26203	0.638515	2.571	0.905632	4.71672
0.442157	2.55684	0.356895	3.62309	0.793448	4.13078	0.978068	6.25948	0.640466	2.5586	0.90922	4.71735
0.444106	2.56813	0.359651	3.6221	0.796572	4.08282	0.982828	6.25546	0.642408	2.54688	0.912809	4.71664
0.446064	2.5793	0.362406	3.62111	0.79966	4.03556	0.987585	6.25	0.644341	2.53586	0.916396	4.71462
0.44803	2.59035	0.365161	3.62016	0.802712	3.98911	0.992337	6.24319	0.646266	2.52546	0.919982	4.71137
0.450005	2.60126	0.367914	3.61915	0.805729	3.94345	0.997084	6.23489	0.648183	2.51569	0.923564	4.70687
0.451988	2.6121	0.370667	3.6182	0.808711	3.8986	1.00182	6.23036	0.650093	2.50659	0.927143	4.70122
0.453979	2.62276	0.373419	3.61732	0.81166	3.85456			0.651997	2.49809	0.930717	4.69431
0.455978	2.63325	0.376171	3.61639	0.814576	3.81137			0.653894	2.49016	0.934285	4.68628
0.457985	2.6437	0.378921	3.61543	0.817459	3.769			0.655785	2.48279	0.937847	4.67719
0.460001	2.65399	0.381671	3.61454	0.82031	3.72751			0.657671	2.47596	0.941401	4.66695
0.462023	2.66412	0.384421	3.61365	0.82313	3.68689			0.659552	2.46963	0.944948	4.65565
0.464054	2.6742	0.387169	3.61276	0.82592	3.64716			0.661429	2.46382	0.948485	4.64335
0.466092	2.68413	0.389917	3.61191	0.828679	3.60832			0.663301	2.4585	0.952012	4.63008
0.468138	2.6939	0.392665	3.61103	0.83141	3.57029			0.665169	2.45364	0.955529	4.61577
0.470191	2.70354	0.395411	3.61015	0.834111	3.53324			0.667034	2.44923	0.959035	4.60054
0.472251	2.71311	0.398157	3.6093	0.836785	3.49709			0.668896	2.44524	0.962529	4.58445
0.474319	2.72256	0.400903	3.60852	0.839432	3.4617			0.670754	2.44171	0.96601	4.56743
0.476393	2.73182	0.403647	3.60768	0.842052	3.42728			0.672611	2.43856	0.969478	4.5496
0.478475	2.74097	0.406392	3.60686	0.844646	3.39379			0.674465	2.43582	0.972932	4.53099
0.480564	2.75008	0.409135	3.60604	0.847216	3.36107			0.676317	2.43342	0.976372	4.51155
0.482659	2.75899	0.411878	3.60523	0.84976	3.32924			0.678167	2.43136	0.979796	4.49134
0.484761	2.76779	0.41462	3.60447	0.852281	3.29826			0.680016	2.42966	0.983205	4.47051
0.48687	2.77654	0.417362	3.60368	0.854778	3.26814			0.681864	2.42828	0.986598	4.44897
0.488986	2.78509	0.420103	3.60293	0.857253	3.23887			0.68371	2.42727	0.989974	4.42672
0.491107	2.79358	0.422844	3.60215	0.859706	3.21037			0.685556	2.42654	0.993333	4.40394
0.493236	2.80195	0.425584	3.6014	0.862138	3.18276			0.687402	2.42609	0.996674	4.38057
0.49537	2.81017	0.428323	3.60067	0.864548	3.1559			0.689248	2.4259	0.999998	4.35664
0.497511	2.81832	0.431062	3.5999	0.866939	3.12982			0.691093	2.42599	1.0033	4.34457
0.499658	2.82634	0.4338	3.5992	0.86931	3.10454			0.692939	2.4263		
0.501812	2.83425	0.436538	3.59844	0.871663	3.08001			0.694785	2.42691		
0.503971	2.84207	0.439275	3.59771	0.873996	3.05627			0.696631	2.4278		
0.506136	2.84979	0.442012	3.59707	0.876313	3.03323			0.698478	2.42882		
0.508306	2.85737	0.444748	3.59635	0.878611	3.01085			0.700326	2.4301		
0.510483	2.86488	0.447483	3.59563	0.880893	2.98926			0.702176	2.43159		
0.512665	2.87227	0.450218	3.59496	0.883159	2.96837			0.704026	2.43323		
0.514853	2.87951	0.452953	3.59431	0.88541	2.94806			0.705878	2.43513		
0.517046	2.88672	0.455687	3.59362	0.887645	2.92848			0.707731	2.4372		
0.519245	2.89386	0.45842	3.59292	0.889865	2.90959			0.709586	2.43935		
0.521449	2.90085	0.461153	3.5923	0.892071	2.89127			0.711442	2.44173		
0.523658	2.9077	0.463886	3.59163	0.894264	2.87358			0.713301	2.44431		
0.525873	2.91454	0.466618	3.59098	0.896444	2.85653			0.715161	2.44699		
0.528093	2.92123	0.469349	3.59035	0.89861	2.84002			0.717024	2.44986		
0.530318	2.92785	0.47208	3.58971	0.900764	2.8241			0.718888	2.45281		
0.532547	2.93439	0.474811	3.58908	0.902907	2.80874			0.720756	2.45586		
0.534782	2.94084	0.477541	3.58845	0.905038	2.79392			0.722625	2.45914		
0.537022	2.94721	0.480271	3.58787	0.907158	2.7797			0.724497	2.46248		
0.539266	2.9534	0.483	3.58726	0.909267	2.7659			0.726372	2.4659		
0.541515	2.95959	0.485728	3.58665	0.911366	2.75264			0.728249	2.46949		
0.543769	2.96573	0.488457	3.58602	0.913455	2.73995			0.730129	2.47313		
0.546027	2.97172	0.491184	3.58544	0.915535	2.72764			0.732011	2.47687		
0.54829	2.97763	0.493912	3.58484	0.917605	2.71583			0.733897	2.48072		
0.550558	2.9835	0.496639	3.58427	0.919667	2.7045			0.735786	2.48466		
0.55283	2.98926	0.499365	3.58371	0.92172	2.69359			0.737677	2.4887		
0.555106	2.99492	0.502091	3.58312	0.923765	2.68311			0.739572	2.49278		
0.557386	3.00053	0.504817	3.58256	0.925802	2.67303			0.74147	2.49697		
0.559671	3.00607	0.507542	3.58196	0.927832	2.66341			0.743371	2.50117		
0.56196	3.01154	0.510266	3.58139	0.929854	2.65416			0.745276	2.50547		
