Sym0		Asym0		Sym1		Sym2		Sym3		Sym4		Asym1		Asym2		Asym3		Asym4	
495  Points		501  Points		348  Points		239  Points		211  Points		166  Points		435  Points		274  Points		216  Points		170  Points	
Freq (MHz)	Vph (m/ms)	Freq (MHz)	Vph (m/ms)	Freq (MHz)	Vph (m/ms)	Freq (MHz)	Vph (m/ms)	Freq (MHz)	Vph (m/ms)	Freq (MHz)	Vph (m/ms)	Freq (MHz)	Vph (m/ms)	Freq (MHz)	Vph (m/ms)	Freq (MHz)	Vph (m/ms)	Freq (MHz)	Vph (m/ms)
0.00333473	4.52911	0.000443439	0.17036	0.279514	368.395	0.360117	547.005	0.559018	2586.69	0.838526	4386.2	0.139758	640.462	0.419266	895.577	0.698771	1126.07	0.720209	13878.7
0.00755411	4.52889	0.000814918	0.230551	0.279535	165.363	0.36018	226.523	0.559035	487.046	0.838536	746.78	0.139866	121.632	0.419295	299.529	0.698771	450.172	0.720229	732.246
0.0117729	4.52861	0.00129544	0.290044	0.279572	106.62	0.360295	142.876	0.559077	268.851	0.83856	408.145	0.14012	67.3133	0.419351	179.86	0.698772	281.317	0.720285	376.072
0.0159908	4.52821	0.00188213	0.348668	0.279625	78.683	0.360461	104.378	0.559143	185.688	0.838597	280.819	0.140518	46.6326	0.419435	128.533	0.698773	204.581	0.720376	253.032
0.0202073	4.52766	0.0025717	0.406289	0.279695	62.3551	0.360679	82.2506	0.559233	141.833	0.838649	214.053	0.141059	35.7565	0.419548	100.013	0.698774	160.737	0.720503	190.676
0.0244221	4.52699	0.00336032	0.462762	0.27978	51.6466	0.360949	67.8881	0.559348	114.748	0.838715	172.944	0.141741	29.065	0.419688	81.8644	0.698777	132.369	0.720665	152.996
0.0286349	4.52621	0.00424384	0.517976	0.279883	44.0836	0.36127	57.8169	0.559486	96.3587	0.838795	145.087	0.142559	24.5437	0.419856	69.3024	0.698781	112.512	0.720862	127.766
0.0328452	4.52528	0.00521796	0.571842	0.280002	38.4586	0.361642	50.3666	0.559648	83.0588	0.838889	124.964	0.143511	21.2921	0.420053	60.0933	0.698787	97.8364	0.721094	109.693
0.0370527	4.52422	0.00627814	0.624286	0.280137	34.1119	0.362066	44.6339	0.559835	72.9933	0.838997	109.748	0.144591	18.8472	0.420277	53.0538	0.698795	86.5478	0.721359	96.1113
0.041257	4.52303	0.00741955	0.675228	0.28029	30.6529	0.36254	40.088	0.560046	65.1112	0.839119	97.8401	0.145797	16.9463	0.420529	47.4992	0.698807	77.5953	0.721657	85.5333
0.0454578	4.5217	0.00863757	0.724634	0.28046	27.8353	0.363065	36.3964	0.56028	58.7723	0.839255	88.2671	0.147122	15.4294	0.420809	43.0051	0.698823	70.3219	0.721988	77.0627
0.0496545	4.52024	0.00992748	0.77247	0.280648	25.4963	0.36364	33.3401	0.560539	53.5644	0.839404	80.4041	0.148562	14.1935	0.421117	39.295	0.698843	64.2958	0.722351	70.1275
0.0538469	4.51863	0.0112847	0.818724	0.280853	23.5238	0.364265	30.769	0.560821	49.2101	0.839568	73.8308	0.150112	13.1694	0.421452	36.1809	0.698867	59.2217	0.722746	64.3457
0.0580343	4.51688	0.0127047	0.863386	0.281077	21.8384	0.364939	28.577	0.561127	45.5159	0.839746	68.2542	0.151767	12.3085	0.421815	33.5301	0.698898	54.8906	0.723171	59.4521
0.0622165	4.51498	0.0141831	0.906459	0.281319	20.3818	0.365663	26.6867	0.561458	42.3427	0.839938	63.4638	0.153521	11.5761	0.422205	31.247	0.698935	51.1506	0.723626	55.2571
0.0663931	4.51294	0.0157158	0.947969	0.28158	19.1107	0.366435	25.0404	0.561812	39.5878	0.840143	59.3045	0.155371	10.9465	0.422623	29.2603	0.698979	47.8885	0.724111	51.6215
0.0705633	4.51074	0.0172987	0.987926	0.28186	17.992	0.367256	23.5943	0.562189	37.1739	0.840363	55.6594	0.157311	10.4005	0.423068	27.5161	0.699031	45.0184	0.724624	48.4406
0.0747268	4.50838	0.0189281	1.02637	0.28216	17.0001	0.368125	22.3145	0.562591	35.0416	0.840596	52.439	0.159335	9.9231	0.42354	25.9729	0.69909	42.4737	0.725166	45.6346
0.078883	4.50585	0.0206003	1.06333	0.28248	16.1148	0.369041	21.1742	0.563016	33.1447	0.840843	49.5731	0.161441	9.50284	0.424039	24.5981	0.699159	40.2022	0.725735	43.141
0.0830316	4.50316	0.0223121	1.09884	0.282821	15.32	0.370005	20.1522	0.563464	31.4463	0.841104	47.0065	0.163623	9.13054	0.424565	23.3658	0.699237	38.1622	0.726331	40.9106
0.0871717	4.5003	0.0240602	1.13295	0.283183	14.6026	0.371015	19.2313	0.563936	29.917	0.841379	44.6946	0.165877	8.79888	0.425117	22.2551	0.699325	36.3202	0.726953	38.904
0.0913029	4.49726	0.0258419	1.1657	0.283567	13.9521	0.372071	18.3976	0.564432	28.533	0.841668	42.6015	0.1682	8.5019	0.425697	21.249	0.699423	34.6487	0.727601	37.0894
0.0954245	4.49404	0.0276542	1.19714	0.283973	13.3597	0.373173	17.6394	0.564951	27.2747	0.841971	40.6976	0.170587	8.23474	0.426302	20.3336	0.699532	33.1252	0.728275	35.4406
0.0995358	4.49062	0.0294946	1.22731	0.284402	12.818	0.37432	16.9473	0.565493	26.1257	0.842287	38.9584	0.172716	8.0231	0.426934	19.4973	0.699653	31.731	0.728973	33.9359
0.103636	4.48701	0.0313608	1.25626	0.284855	12.321	0.375512	16.3131	0.566059	25.0726	0.842617	37.3635	0.174567	7.85646	0.427593	18.7304	0.699786	30.4503	0.729695	32.5574
0.107725	4.48319	0.0332505	1.28404	0.285332	11.8636	0.376748	15.7301	0.566647	24.1039	0.842961	35.8958	0.17612	7.72732	0.428277	18.0247	0.699931	29.27	0.730442	31.29
0.111801	4.47916	0.0351618	1.31069	0.285834	11.4412	0.378027	15.1925	0.567259	23.2101	0.843319	34.5407	0.177362	7.63033	0.428987	17.3734	0.700088	28.1787	0.731212	30.1208
0.115865	4.47491	0.0370928	1.33626	0.286361	11.0502	0.379349	14.6954	0.567893	22.3828	0.84369	33.2857	0.178284	7.56172	0.429723	16.7704	0.700259	27.1668	0.732005	29.039
0.119914	4.47043	0.0390418	1.3608	0.286915	10.6874	0.380714	14.2345	0.568551	21.615	0.844075	32.1202	0.178877	7.51896	0.430485	16.2107	0.700443	26.226	0.732821	28.0352
0.123948	4.46571	0.0410071	1.38434	0.287497	10.3498	0.382121	13.8062	0.569231	20.9005	0.844474	31.035	0.179734	7.45901	0.431272	15.6898	0.700641	25.3491	0.733659	27.1013
0.127966	4.46074	0.0429874	1.40694	0.288106	10.0352	0.383569	13.4072	0.569934	20.2341	0.844886	30.0222	0.180672	7.3958	0.432084	15.204	0.700852	24.5299	0.73452	26.2303
0.131967	4.45551	0.0449812	1.42863	0.288745	9.74133	0.385058	13.0348	0.57066	19.6112	0.845312	29.0748	0.181957	7.31294	0.432921	14.7499	0.701078	23.7629	0.735402	25.4161
0.13595	4.45001	0.0469873	1.44946	0.289415	9.46636	0.386588	12.6864	0.571408	19.0277	0.845751	28.1866	0.183598	7.21299	0.433783	14.3246	0.701319	23.0433	0.736305	24.6535
0.139914	4.44422	0.0490047	1.46945	0.290115	9.20865	0.388157	12.36	0.572178	18.48	0.846204	27.3524	0.185606	7.09884	0.43467	13.9254	0.701574	22.367	0.73723	23.9377
0.143857	4.43814	0.0510322	1.48866	0.290849	8.96675	0.389765	12.0536	0.572971	17.965	0.846671	26.5674	0.187992	6.97353	0.435582	13.5502	0.701845	21.7302	0.738176	23.2646
0.147779	4.43175	0.0530688	1.50711	0.291615	8.73936	0.391412	11.7655	0.573786	17.4799	0.847151	25.8274	0.190768	6.84011	0.436517	13.1968	0.702131	21.1295	0.739142	22.6306
0.151678	4.42503	0.0548505	1.5226	0.292417	8.52534	0.393097	11.4943	0.574623	17.0223	0.847644	25.1286	0.193583	6.71667	0.437477	12.8635	0.702432	20.5621	0.740129	22.0323
0.155553	4.41798	0.0563739	1.53539	0.293255	8.32368	0.39482	11.2385	0.575483	16.5899	0.848151	24.4679	0.196435	6.6022	0.438461	12.5487	0.702749	20.0252	0.741136	21.4669
0.159401	4.41057	0.0576366	1.54569	0.294016	8.1573	0.396579	10.9969	0.576364	16.1807	0.848672	23.8421	0.199322	6.49582	0.439469	12.2508	0.703082	19.5165	0.742163	20.9318
0.163222	4.40279	0.0586367	1.55365	0.294688	8.0219	0.398375	10.7685	0.577267	15.7929	0.849206	23.2485	0.202241	6.39674	0.440501	11.9687	0.703431	19.0339	0.74321	20.4246
0.167014	4.39462	0.0593731	1.55942	0.295261	7.91419	0.400207	10.5523	0.578192	15.4251	0.849753	22.6849	0.205192	6.30429	0.441556	11.7012	0.703796	18.5755	0.744277	19.9433
0.170774	4.38605	0.0598448	1.56306	0.295725	7.83162	0.402074	10.3473	0.579138	15.0756	0.850313	22.149	0.208172	6.21786	0.442634	11.4471	0.704177	18.1395	0.745363	19.4859
0.174502	4.37706	0.0605234	1.56825	0.296072	7.77232	0.403976	10.1528	0.580106	14.7432	0.850887	21.6388	0.21118	6.13691	0.443736	11.2056	0.704575	17.7244	0.746468	19.0508
0.178195	4.36762	0.0612617	1.57381	0.296297	7.73499	0.405912	9.96806	0.581095	14.4268	0.851474	21.1525	0.214213	6.06096	0.44486	10.9758	0.70499	17.3287	0.747593	18.6363
0.181852	4.35773	0.0622668	1.58125	0.296624	7.68215	0.407881	9.79238	0.582106	14.1251	0.852074	20.6886	0.217271	5.9896	0.446007	10.7568	0.705421	16.9511	0.748736	18.2412
0.185469	4.34736	0.0635399	1.59046	0.296986	7.62578	0.409884	9.62517	0.583138	13.8373	0.852687	20.2455	0.220353	5.92242	0.447177	10.548	0.705869	16.5904	0.749899	17.864
0.189046	4.33649	0.0650817	1.60131	0.297486	7.55089	0.41192	9.46587	0.584191	13.5625	0.853314	19.8219	0.223456	5.8591	0.44837	10.3487	0.706334	16.2456	0.75108	17.5037
0.192579	4.3251	0.0668937	1.61366	0.298134	7.45899	0.413987	9.31397	0.585265	13.2997	0.853954	19.4165	0.226579	5.79933	0.449585	10.1583	0.706817	15.9156	0.75228	17.1591
0.196067	4.31318	0.0689768	1.62734	0.298941	7.35187	0.416086	9.169	0.586359	13.0483	0.854606	19.0282	0.229722	5.74281	0.450821	9.97624	0.707316	15.5996	0.753498	16.8292
0.199507	4.30071	0.0710634	1.6405	0.299921	7.23159	0.418217	9.03053	0.587475	12.8076	0.855272	18.656	0.232882	5.68931	0.45208	9.80201	0.707833	15.2967	0.754735	16.5132
0.202897	4.28767	0.0731534	1.6532	0.301093	7.10032	0.420377	8.89818	0.588611	12.5769	0.855951	18.299	0.23606	5.6386	0.453361	9.63514	0.708367	15.0061	0.75599	16.2102
0.206234	4.27405	0.0752462	1.66542	0.302315	6.97588	0.422568	8.77156	0.589768	12.3557	0.856642	17.9561	0.239253	5.59046	0.454664	9.4752	0.708918	14.7271	0.757264	15.9195
0.209517	4.25983	0.0773415	1.67721	0.303591	6.85788	0.424789	8.65036	0.590945	12.1433	0.857347	17.6266	0.242461	5.54471	0.455988	9.32179	0.709487	14.4591	0.758555	15.6403
0.212743	4.245	0.079439	1.68858	0.304922	6.74597	0.427038	8.53424	0.592142	11.9393	0.858065	17.3098	0.245683	5.50118	0.457333	9.17456	0.710074	14.2014	0.759864	15.372
0.21591	4.22956	0.0815384	1.69955	0.306311	6.63984	0.429316	8.42294	0.59336	11.7433	0.858795	17.0049	0.248917	5.4597	0.4587	9.03314	0.710678	13.9534	0.761191	15.114
0.219015	4.21349	0.0836395	1.71013	0.30776	6.53918	0.431622	8.31617	0.594598	11.5547	0.859538	16.7114	0.252164	5.42014	0.460088	8.89723	0.7113	13.7148	0.762536	14.8657
0.222058	4.19681	0.0857421	1.72035	0.30927	6.44371	0.433654	8.22663	0.595855	11.3732	0.860294	16.4285	0.255421	5.38237	0.461497	8.76653	0.711939	13.4849	0.763899	14.6266
0.225036	4.1795	0.0878458	1.73022	0.310845	6.3532	0.435403	8.15276	0.597133	11.1985	0.861063	16.1557	0.258688	5.34625	0.462927	8.64077	0.712596	13.2632	0.765279	14.3962
0.227949	4.16158	0.0899507	1.73975	0.312486	6.26739	0.43686	8.09331	0.598431	11.0301	0.861845	15.8925	0.261965	5.31168	0.464378	8.51969	0.713272	13.0495	0.766677	14.174
0.230794	4.14305	0.0920563	1.74896	0.314195	6.18608	0.438019	8.04732	0.599748	10.8677	0.862639	15.6385	0.265249	5.27857	0.46585	8.40306	0.713964	12.8433	0.768092	13.9598
0.233571	4.12393	0.0941627	1.75786	0.315975	6.10904	0.438876	8.01406	0.601085	10.7111	0.863445	15.3931	0.268541	5.2468	0.46715	8.30487	0.714675	12.6441	0.769525	13.7529
0.23628	4.10424	0.0962695	1.76647	0.317826	6.0361	0.439426	7.99302	0.602441	10.56	0.864265	15.156	0.27184	5.21629	0.46827	8.2236	0.715404	12.4518	0.770975	13.5531
0.23892	4.08401	0.0983768	1.77479	0.31975	5.96706	0.440218	7.9631	0.603817	10.414	0.865096	14.9267	0.275145	5.18697	0.469205	8.15802	0.716151	12.2659	0.772442	13.3601
0.241492	4.06325	0.100484	1.78285	0.321749	5.90175	0.441083	7.93101	0.605212	10.273	0.865941	14.7049	0.278454	5.15876	0.469949	8.10718	0.716916	12.0861	0.773926	13.1735
0.243995	4.04201	0.102592	1.79065	0.323823	5.83999	0.442265	7.88807	0.606627	10.1367	0.866798	14.4902	0.281769	5.13158	0.4705	8.07035	0.717699	11.9122	0.775428	12.993
0.246431	4.02032	0.1047	1.79819	0.325974	5.78163	0.443768	7.8349	0.608061	10.0049	0.867667	14.2823	0.285086	5.10538	0.470854	8.04703	0.7185	11.7439	0.776946	12.8183
0.248801	3.99821	0.106808	1.80551	0.328201	5.72651	0.445598	7.77224	0.609513	9.87738	0.868548	14.0808	0.288407	5.08008	0.471364	8.01383	0.719319	11.5809	0.778482	12.6492
0.250814	3.97865	0.108916	1.81259	0.330505	5.67447	0.447763	7.70094	0.610985	9.75396	0.869442	13.8856	0.29173	5.05565	0.471922	7.97817	0.720156	11.423	0.780034	12.4854
0.252492	3.96177	0.111024	1.81946	0.332886	5.62536	0.45027	7.62192	0.612476	9.63446	0.870348	13.6963	0.295054	5.03201	0.472684	7.93038	0.721011	11.2701	0.781603	12.3267
0.253854	3.94768	0.113131	1.82611	0.335343	5.57904	0.452801	7.54576	0.613985	9.5187	0.871267	13.5126	0.29838	5.00913	0.473655	7.87109	0.721884	11.1217	0.783189	12.1729
0.254914	3.93647	0.115238	1.83256	0.337875	5.53536	0.455356	7.47232	0.615513	9.40652	0.872198	13.3344	0.301705	4.98695	0.474839	7.80105	0.722775	10.9779	0.784792	12.0237
0.255685	3.92819	0.117345	1.83883	0.34048	5.49418	0.457934	7.40147	0.61706	9.29777	0.87314	13.1613	0.30503	4.96544	0.476242	7.72112	0.723684	10.8383	0.786411	11.8789
0.256175	3.92288	0.119452	1.8449	0.343158	5.45537	0.460536	7.33309	0.618626	9.19232	0.874095	12.9932	0.308354	4.94455	0.477872	7.63225	0.724612	10.7029	0.788047	11.7384
0.256873	3.91522	0.121558	1.8508	0.345906	5.41879	0.463159	7.26706	0.62021	9.09001	0.875062	12.8299	0.311675	4.92425	0.479522	7.54631	0.725557	10.5714	0.789699	11.602
0.257625	3.90686	0.123664	1.85652	0.348721	5.38431	0.465805	7.20328	0.621813	8.99073	0.876041	12.6712	0.314994	4.9045	0.481193	7.46318	0.726521	10.4436	0.791368	11.4696
0.258636	3.89546	0.125769	1.86208	0.351603	5.35181	0.468473	7.14164	0.623434	8.89435	0.877032	12.5168	0.318311	4.88526	0.482884	7.38272	0.727503	10.3195	0.793054	11.3408
0.259896	3.88099	0.127874	1.86748	0.354547	5.32117	0.471163	7.08204	0.625073	8.80076	0.878035	12.3667	0.321623	4.8665	0.484595	7.30483	0.728502	10.1989	0.794756	11.2157
0.261393	3.86341	0.129978	1.87273	0.357552	5.29226	0.473873	7.02441	0.626731	8.70984	0.87905	12.2206	0.32493	4.8482	0.486326	7.2294	0.72952	10.0817	0.796474	11.0941
0.263113	3.84272	0.132082	1.87783	0.360614	5.26498	0.476604	6.96865	0.628407	8.62151	0.880077	12.0785	0.328233	4.83033	0.488078	7.15633	0.730556	9.96764	0.798208	10.9758
0.26504	3.8189	0.134185	1.8828	0.363731	5.23922	0.479355	6.91468	0.629883	8.54655	0.881116	11.94	0.33153	4.81286	0.489851	7.08552	0.731609	9.85672	0.799959	10.8608
0.266921	3.79505	0.136287	1.88762	0.3669	5.21488	0.482127	6.86243	0.631151	8.48409	0.882166	11.8052	0.33482	4.79576	0.491644	7.01689	0.732681	9.74879	0.801725	10.7488
0.268758	3.77121	0.138389	1.89232	0.370117	5.19185	0.484918	6.81182	0.632208	8.43341	0.883228	11.6739	0.338103	4.77901	0.493457	6.95035	0.733771	9.64373	0.803508	10.6398
0.270553	3.74741	0.140491	1.89688	0.37338	5.17005	0.487728	6.76279	0.633048	8.39395	0.884302	11.5459	0.341379	4.76259	0.495292	6.88583	0.734878	9.54146	0.805307	10.5337
0.272309	3.72369	0.142592	1.90133	0.376686	5.1494	0.490557	6.71527	0.633669	8.36527	0.885388	11.4211	0.344646	4.74647	0.497147	6.82323	0.736004	9.44185	0.807122	10.4303
0.27403	3.70007	0.144692	1.90566	0.380031	5.1298	0.493405	6.66919	0.634068	8.34707	0.886485	11.2995	0.347904	4.73065	0.499023	6.76251	0.737147	9.34483	0.808953	10.3296
0.275716	3.67659	0.146792	1.90988	0.383414	5.11118	0.496271	6.62451	0.634642	8.3211	0.887594	11.1808	0.351153	4.71509	0.500919	6.70357	0.738309	9.25029	0.8108	10.2314
0.277372	3.65328	0.148891	1.91399	0.386832	5.09348	0.499156	6.58117	0.635269	8.29313	0.888714	11.0651	0.354391	4.69978	0.502837	6.64636	0.739487	9.15816	0.812663	10.1358
0.278998	3.63015	0.150989	1.91799	0.390281	5.07661	0.502058	6.5391	0.636124	8.25553	0.889846	10.9521	0.357619	4.6847	0.504776	6.59083	0.740684	9.06834	0.814541	10.0425
0.280598	3.60724	0.153087	1.92189	0.393759	5.06053	0.504978	6.49828	0.637213	8.20869	0.890989	10.8419	0.360835	4.66983	0.506736	6.5369	0.741899	8.98077	0.816435	9.95155
0.282173	3.58455	0.155184	1.9257	0.397265	5.04517	0.507915	6.45863	0.638539	8.15307	0.892143	10.7342	0.36404	4.65517	0.508718	6.48452	0.743131	8.89536	0.818345	9.86282
0.283725	3.56211	0.157281	1.92941	0.400795	5.03048	0.510869	6.42013	0.640106	8.08923	0.893309	10.6291	0.367231	4.6407	0.510721	6.43365	0.74438	8.81204	0.820271	9.77625
0.285256	3.53992	0.159377	1.93303	0.404347	5.0164	0.513839	6.38273	0.641922	8.01777	0.894487	10.5264	0.370409	4.62639	0.512745	6.38422	0.745484	8.74109	0.822212	9.69177
0.286768	3.51802	0.161472	1.93656	0.40792	5.0029	0.516826	6.34638	0.643756	7.94819	0.895676	10.4261	0.373574	4.61224	0.514792	6.3362	0.746435	8.68178	0.824169	9.6093
0.288263	3.49639	0.163567	1.94	0.411511	4.98992	0.519829	6.31105	0.645608	7.8804	0.896875	10.328	0.376724	4.59824	0.51686	6.28953	0.747228	8.63354	0.826141	9.52878
0.289742	3.47506	0.165661	1.94337	0.415118	4.97743	0.522848	6.27671	0.647478	7.81436	0.898087	10.2322	0.379859	4.58437	0.51895	6.24418	0.747861	8.5959	0.828129	9.45016
0.291207	3.45403	0.167755	1.94665	0.41874	4.96539	0.525882	6.2433	0.649366	7.75	0.899309	10.1385	0.382978	4.57062	0.521063	6.20009	0.748328	8.56851	0.830132	9.37336
0.292658	3.43331	0.169848	1.94986	0.422375	4.95376	0.528932	6.21081	0.651272	7.68727	0.900542	10.0469	0.386082	4.55699	0.523198	6.15723	0.748628	8.55109	0.83215	9.29833
0.294098	3.41289	0.17194	1.95299	0.426021	4.94251	0.531997	6.1792	0.653196	7.62612	0.901787	9.95728	0.389168	4.54346	0.525355	6.11557	0.749062	8.52623	0.834184	9.22502
0.295527	3.39279	0.174032	1.95605	0.429676	4.93162	0.535077	6.14844	0.655139	7.56649	0.903043	9.86961	0.392237	4.53001	0.527535	6.07506	0.749535	8.49942	0.836233	9.15337
0.296947	3.37302	0.176123	1.95904	0.43334	4.92104	0.538172	6.1185	0.657099	7.50834	0.90431	9.78383	0.395289	4.51666	0.529738	6.03567	0.750182	8.46333	0.838298	9.08333
0.298358	3.35356	0.178214	1.96197	0.43701	4.91077	0.541281	6.08934	0.659078	7.45162	0.905587	9.69988	0.398322	4.50337	0.531964	5.99736	0.751006	8.41827	0.840377	9.01485
0.299762	3.33441	0.180304	1.96482	0.440686	4.90076	0.544404	6.06095	0.661075	7.39628	0.906876	9.6177	0.401336	4.49015	0.534212	5.9601	0.752012	8.36465	0.842471	8.94789
0.301159	3.31559	0.182394	1.96762	0.444366	4.89101	0.547542	6.0333	0.66309	7.34229	0.908176	9.53725	0.404331	4.477	0.536484	5.92387	0.753203	8.30292	0.844309	8.89074
0.302551	3.29709	0.184483	1.97035	0.448049	4.88149	0.550693	6.00636	0.665123	7.28961	0.909486	9.45847	0.407307	4.46389	0.538779	5.88863	0.754586	8.23361	0.845884	8.84288
0.303937	3.27891	0.186572	1.97303	0.451734	4.87218	0.553858	5.98011	0.667175	7.23818	0.910808	9.38131	0.410262	4.45083	0.541097	5.85435	0.755987	8.16587	0.847193	8.80389
0.305319	3.26104	0.18866	1.97564	0.455419	4.86305	0.557037	5.95453	0.669245	7.18799	0.91214	9.30573	0.413196	4.43781	0.543438	5.821	0.757404	8.09967	0.848232	8.77343
0.306698	3.24349	0.190748	1.9782	0.459104	4.85411	0.560228	5.9296	0.671334	7.13898	0.913483	9.23169	0.41611	4.42482	0.545802	5.78856	0.758839	8.03495	0.848998	8.75123
0.308074	3.22625	0.192835	1.98071	0.462787	4.84532	0.563433	5.90528	0.673441	7.09113	0.914837	9.15913	0.419002	4.41187	0.54819	5.757	0.76029	7.97168	0.84949	8.73712
0.309447	3.20932	0.194921	1.98317	0.466467	4.83668	0.566651	5.88157	0.675567	7.0444	0.916202	9.08802	0.421872	4.39894	0.550602	5.7263	0.761758	7.9098	0.850197	8.71695
0.310818	3.19269	0.197008	1.98557	0.470145	4.82816	0.569881	5.85845	0.677711	6.99877	0.917399	9.0272	0.424721	4.38602	0.553037	5.69642	0.763243	7.84929	0.850968	8.69519
0.312187	3.17636	0.199093	1.98792	0.473818	4.81977	0.573124	5.83589	0.679874	6.9542	0.918427	8.97618	0.427547	4.37313	0.555495	5.66735	0.764745	7.79009	0.85202	8.66586
0.313556	3.16033	0.201179	1.99023	0.477486	4.81148	0.57638	5.81388	0.682056	6.91066	0.919281	8.93455	0.43035	4.36025	0.557976	5.63907	0.766263	7.73217	0.853355	8.62921
0.314925	3.14459	0.203263	1.99249	0.481147	4.80328	0.579647	5.7924	0.684257	6.86813	0.919959	8.90199	0.43313	4.34738	0.560481	5.61154	0.767798	7.67549	0.854977	8.58552
0.316293	3.12914	0.205348	1.9947	0.484802	4.79517	0.582926	5.77144	0.686477	6.82657	0.92046	8.87824	0.435887	4.33452	0.563009	5.58476	0.769349	7.62003	0.85689	8.53515
0.317661	3.11397	0.207431	1.99687	0.48845	4.78713	0.586218	5.75098	0.688717	6.78596	0.920781	8.86313	0.438621	4.32167	0.56556	5.55869	0.770917	7.56574	0.859099	8.47846
0.31903	3.09909	0.209515	1.999	0.492089	4.77915	0.589521	5.731	0.690975	6.74628	0.921243	8.84153	0.441332	4.30882	0.568133	5.53331	0.772501	7.51259	0.861322	8.42296
