Sym0		Asym0		Sym1		Sym2		Asym1	
474  Points		491  Points		474  Points		219  Points		395  Points	
Freq (MHz)	Vph (m/ms)	Freq (MHz)	Vph (m/ms)	Freq (MHz)	Vph (m/ms)	Freq (MHz)	Vph (m/ms)	Freq (MHz)	Vph (m/ms)
0.00570047	9.78045	0.0004969	0.2644	0.00173053	9.78041	0.279512	1597.29	0.139767	720.339
0.0148116	9.77958	0.00110004	0.391328	0.0108425	9.78008	0.279656	252.697	0.140198	124.54
0.0239193	9.77801	0.00192217	0.513573	0.0199519	9.77878	0.280007	137.367	0.141229	68.6437
0.0330213	9.77561	0.00294535	0.630098	0.0290567	9.77675	0.280563	94.4633	0.142846	47.7887
0.0421155	9.77244	0.004149	0.740082	0.0381546	9.77392	0.281319	72.1005	0.145026	36.9888
0.0511996	9.76845	0.00551157	0.843029	0.0472434	9.77029	0.28227	58.399	0.14774	30.4462
0.0602708	9.76359	0.00701187	0.938731	0.0563205	9.76581	0.283406	49.1583	0.150956	26.0979
0.0693266	9.75784	0.00862956	1.02718	0.0653834	9.76046	0.284718	42.5152	0.154637	23.0255
0.0783641	9.75115	0.0103461	1.10856	0.0744293	9.75418	0.286196	37.5164	0.158747	20.7578
0.0873801	9.74343	0.0121448	1.18317	0.083455	9.74692	0.287826	33.6236	0.163251	19.0285
0.0963709	9.73464	0.0140111	1.2514	0.0924573	9.73861	0.289596	30.5097	0.168114	17.6757
0.105333	9.72466	0.0159324	1.31369	0.101432	9.72916	0.291491	27.9644	0.173301	16.5955
0.114261	9.71341	0.0178984	1.3705	0.110375	9.71848	0.293494	25.8464	0.178784	15.7181
0.12315	9.70076	0.0198999	1.4223	0.119282	9.70645	0.295591	24.0572	0.184532	14.9952
0.131995	9.68657	0.0216674	1.46369	0.128147	9.69296	0.297766	22.5261	0.19052	14.3922
0.140788	9.67069	0.0231881	1.49645	0.136964	9.67783	0.300006	21.2012	0.196724	13.8836
0.149523	9.6529	0.0244537	1.52191	0.145726	9.6609	0.302298	20.0435	0.203121	13.4507
0.15819	9.633	0.0254587	1.54106	0.154423	9.64195	0.304632	19.0231	0.209693	13.0789
0.166778	9.61071	0.0261999	1.55461	0.163047	9.62073	0.307003	18.1171	0.216421	12.7572
0.175276	9.58574	0.0266752	1.56306	0.171586	9.59697	0.309408	17.3074	0.223289	12.4769
0.183668	9.55773	0.0273594	1.57491	0.180026	9.57033	0.31185	16.5799	0.230282	12.2309
0.191939	9.52626	0.0281047	1.5874	0.188352	9.54042	0.314337	15.9234	0.237387	12.0137
0.200069	9.49086	0.0291201	1.60376	0.196546	9.5068	0.316883	15.3289	0.244592	11.821
0.208034	9.45101	0.0304074	1.62348	0.204585	9.46895	0.319508	14.7893	0.251885	11.6489
0.215809	9.40609	0.0319678	1.64597	0.212447	9.42632	0.322235	14.2989	0.259256	11.4946
0.223364	9.35546	0.0338023	1.67059	0.220101	9.37826	0.325096	13.8531	0.266696	11.3554
0.230665	9.29842	0.0359116	1.69671	0.227517	9.3241	0.328125	13.4482	0.274197	11.2292
0.237678	9.2343	0.0380238	1.72076	0.234661	9.26315	0.33136	13.0814	0.281748	11.1144
0.244365	9.16245	0.040138	1.74295	0.241494	9.19474	0.334844	12.7499	0.289345	11.0094
0.250691	9.08235	0.0422533	1.76345	0.247982	9.11828	0.338618	12.4519	0.296978	10.913
0.256623	8.9937	0.044369	1.78245	0.254089	9.03338	0.342719	12.1852	0.304641	10.824
0.262138	8.89646	0.0464848	1.80007	0.259788	8.93987	0.347182	11.9481	0.312327	10.7415
0.267219	8.79095	0.0486001	1.81644	0.265059	8.8379	0.35203	11.7385	0.320031	10.6648
0.271865	8.6778	0.0507148	1.8317	0.269894	8.72798	0.357274	11.5544	0.327746	10.593
0.276085	8.558	0.0528285	1.84592	0.274298	8.61094	0.362914	11.3936	0.335465	10.5255
0.279901	8.43274	0.0549412	1.85922	0.278286	8.4879	0.368937	11.2535	0.343184	10.4619
0.283341	8.30331	0.0570529	1.87167	0.281886	8.36012	0.375319	11.1318	0.350896	10.4015
0.286441	8.17106	0.0591634	1.88334	0.28513	8.22895	0.38203	11.0261	0.358594	10.344
0.289238	8.03723	0.0612727	1.8943	0.288054	8.09566	0.389034	10.9343	0.366273	10.289
0.291768	7.90292	0.0633808	1.90462	0.290696	7.96143	0.396297	10.8542	0.373927	10.2361
0.294065	7.7691	0.0654877	1.91433	0.293091	7.82729	0.403784	10.784	0.38155	10.185
0.296163	7.63654	0.0675935	1.9235	0.295002	7.71114	0.411463	10.7223	0.389133	10.1354
0.298087	7.50585	0.0696981	1.93216	0.296518	7.61304	0.419305	10.6677	0.396672	10.087
0.299864	7.37751	0.0718016	1.94036	0.297702	7.53273	0.427284	10.619	0.404159	10.0395
0.301515	7.25189	0.0739041	1.94813	0.298596	7.46984	0.435378	10.5752	0.411585	9.9927
0.303057	7.12922	0.0760057	1.9555	0.299233	7.42396	0.443566	10.5357	0.418945	9.94639
0.304506	7.00968	0.0781062	1.9625	0.299631	7.39477	0.451832	10.4997	0.426229	9.90033
0.305876	6.89337	0.0802058	1.96916	0.300192	7.35306	0.46016	10.4666	0.433429	9.85432
0.307178	6.78035	0.0823046	1.9755	0.300787	7.30806	0.468537	10.436	0.440538	9.80817
0.308422	6.67062	0.0844025	1.98154	0.301572	7.24745	0.476953	10.4074	0.447544	9.76168
0.309616	6.56416	0.0864996	1.9873	0.302529	7.1718	0.485396	10.3806	0.454441	9.71468
0.310767	6.46094	0.088596	1.99281	0.303637	7.08187	0.493857	10.3553	0.461217	9.667
0.311881	6.3609	0.0906917	1.99808	0.304876	6.97862	0.502328	10.3311	0.467865	9.6185
0.312964	6.26395	0.0927867	2.00312	0.306227	6.86318	0.510802	10.3078	0.474374	9.56903
0.31402	6.17003	0.0948811	2.00794	0.307512	6.75102	0.51927	10.2853	0.480735	9.51847
0.315053	6.07904	0.0969749	2.01257	0.308742	6.64216	0.527727	10.2634	0.486941	9.46669
0.316067	5.9909	0.0990682	2.01701	0.309924	6.53657	0.536166	10.242	0.492981	9.41362
0.317064	5.90552	0.101161	2.02128	0.311065	6.43419	0.544581	10.2208	0.49885	9.35918
0.318048	5.82279	0.103253	2.02538	0.31217	6.33497	0.552966	10.1998	0.504541	9.30332
0.31902	5.74264	0.105345	2.02932	0.313245	6.23883	0.561316	10.1789	0.510047	9.24601
0.319983	5.66497	0.107436	2.03311	0.314295	6.1457	0.569624	10.1579	0.515366	9.18726
0.320938	5.58968	0.109527	2.03677	0.315323	6.05547	0.577885	10.1368	0.520493	9.12707
0.321888	5.5167	0.111617	2.04029	0.316332	5.96807	0.586094	10.1155	0.525428	9.0655
0.322833	5.44593	0.113707	2.04369	0.317325	5.8834	0.594245	10.0939	0.530171	9.0026
0.323775	5.37731	0.115797	2.04697	0.318306	5.80136	0.602334	10.0719	0.534722	8.93847
0.324714	5.31073	0.117886	2.05014	0.319275	5.72187	0.610354	10.0494	0.539084	8.87319
0.325653	5.24614	0.119975	2.0532	0.320236	5.64484	0.618302	10.0265	0.543261	8.80689
0.326591	5.18346	0.122064	2.05616	0.32119	5.57017	0.626171	10.003	0.547258	8.73968
0.32753	5.12261	0.124152	2.05902	0.322138	5.49778	0.633957	9.97882	0.55108	8.6717
0.32847	5.06353	0.12624	2.06179	0.323082	5.42759	0.641655	9.95401	0.554734	8.60306
0.329412	5.00615	0.128328	2.06448	0.324023	5.35951	0.64926	9.92849	0.558227	8.53392
0.330357	4.95041	0.130416	2.06708	0.324962	5.29347	0.656768	9.90222	0.561565	8.4644
0.331305	4.89626	0.132503	2.0696	0.325901	5.22939	0.664175	9.87517	0.564757	8.39462
0.332256	4.84362	0.13459	2.07204	0.326839	5.1672	0.671476	9.84731	0.567809	8.3247
0.333211	4.79245	0.136677	2.07442	0.327778	5.10682	0.678667	9.81862	0.57073	8.25477
0.334171	4.7427	0.138763	2.07672	0.328719	5.0482	0.685745	9.78907	0.573527	8.18492
0.335135	4.69431	0.14085	2.07896	0.329662	4.99126	0.692706	9.75864	0.576206	8.11526
0.336104	4.64724	0.142936	2.08113	0.330607	4.93595	0.699546	9.72733	0.578452	8.05477
0.337078	4.60143	0.145022	2.08324	0.331556	4.8822	0.706263	9.69512	0.580303	8.00342
0.338058	4.55685	0.147108	2.0853	0.332508	4.82996	0.712853	9.66202	0.581792	7.96112
0.339044	4.51345	0.149193	2.08729	0.333464	4.77917	0.719315	9.62801	0.582944	7.92779
0.340035	4.4712	0.151279	2.08924	0.334425	4.72978	0.725645	9.59311	0.583778	7.90336
0.341033	4.43004	0.153364	2.09113	0.33539	4.68174	0.731842	9.55732	0.584305	7.88776
0.342037	4.38995	0.155449	2.09297	0.336361	4.63501	0.737904	9.52065	0.585055	7.86537
0.343047	4.35089	0.157534	2.09477	0.337337	4.58953	0.74383	9.48311	0.585859	7.84111
0.344064	4.31282	0.159619	2.09652	0.338318	4.54527	0.749619	9.44473	0.586936	7.80823
0.345087	4.27572	0.161704	2.09822	0.339305	4.50217	0.755271	9.40553	0.588269	7.76684
0.346117	4.23954	0.163788	2.09988	0.340298	4.46021	0.760785	9.36552	0.589843	7.71709
0.347154	4.20426	0.165873	2.10151	0.341298	4.41934	0.76616	9.32475	0.591635	7.65919
0.348198	4.16985	0.167957	2.10309	0.342303	4.37953	0.771399	9.28325	0.593627	7.59338
0.349249	4.13628	0.170042	2.10463	0.343315	4.34073	0.776502	9.24104	0.595552	7.52828
0.350307	4.10353	0.172126	2.10614	0.344333	4.30292	0.781469	9.19816	0.597415	7.46393
0.351372	4.07157	0.17421	2.10761	0.345359	4.26606	0.786302	9.15466	0.599221	7.40035
0.352444	4.04037	0.176294	2.10905	0.346391	4.23013	0.791004	9.11058	0.600972	7.33755
0.353523	4.00991	0.178377	2.11046	0.347429	4.19508	0.795576	9.06595	0.602673	7.27556
0.354609	3.98017	0.180461	2.11183	0.348475	4.1609	0.800021	9.02083	0.604327	7.21438
0.355703	3.95113	0.182545	2.11317	0.349528	4.12755	0.804341	8.97525	0.605937	7.15403
0.356803	3.92276	0.184628	2.11449	0.350587	4.09501	0.808539	8.92926	0.607506	7.09451
0.357911	3.89504	0.186712	2.11577	0.351654	4.06325	0.812617	8.8829	0.609036	7.03583
0.359026	3.86796	0.188795	2.11703	0.352728	4.03225	0.81658	8.83622	0.610531	6.97799
0.360004	3.84486	0.190878	2.11826	0.353809	4.00198	0.820429	8.78926	0.611992	6.92098
0.360842	3.82553	0.192961	2.11946	0.354897	3.97243	0.824169	8.74207	0.613421	6.86482
0.361537	3.80979	0.195044	2.12064	0.355993	3.94356	0.827802	8.69468	0.614821	6.80948
0.362089	3.79749	0.197127	2.1218	0.357095	3.91537	0.831331	8.64713	0.616194	6.75498
0.362496	3.78854	0.19921	2.12293	0.358205	3.88782	0.834761	8.59947	0.617541	6.7013
0.362757	3.78285	0.201293	2.12403	0.359322	3.8609	0.838095	8.55173	0.618864	6.64844
0.363133	3.77472	0.203376	2.12512	0.360446	3.83459	0.841334	8.50394	0.620164	6.59639
0.363542	3.76595	0.205459	2.12618	0.361578	3.80888	0.844084	8.46229	0.621444	6.54514
0.3641	3.75413	0.207541	2.12722	0.362716	3.78374	0.846376	8.42679	0.622704	6.49468
0.364809	3.73937	0.209624	2.12825	0.363862	3.75915	0.848236	8.39746	0.623946	6.445
0.365669	3.72178	0.211707	2.12925	0.365015	3.73511	0.849684	8.37428	0.62517	6.3961
0.366683	3.70151	0.213789	2.13023	0.366175	3.7116	0.850736	8.35724	0.626379	6.34795
0.367853	3.67873	0.215871	2.1312	0.367342	3.68859	0.851405	8.34635	0.627573	6.30056
0.369031	3.65643	0.217954	2.13214	0.368517	3.66609	0.852358	8.33069	0.628753	6.25391
0.370215	3.63462	0.220036	2.13307	0.369698	3.64406	0.853385	8.31369	0.62992	6.20799
0.371406	3.61326	0.222118	2.13398	0.370886	3.62251	0.854765	8.29059	0.631075	6.16278
0.372605	3.59236	0.2242	2.13488	0.372082	3.60141	0.856485	8.26141	0.632219	6.11828
0.37381	3.5719	0.226283	2.13576	0.373284	3.58076	0.858528	8.2262	0.633352	6.07448
0.375023	3.55186	0.228365	2.13662	0.374493	3.56054	0.860873	8.185	0.634475	6.03136
0.376242	3.53224	0.230447	2.13747	0.37571	3.54073	0.8635	8.13788	0.63559	5.98891
0.377468	3.51302	0.232529	2.1383	0.376933	3.52134	0.866059	8.09096	0.636696	5.94713
0.378701	3.49419	0.234611	2.13912	0.378163	3.50235	0.868555	8.04425	0.637794	5.90599
0.37994	3.47575	0.236693	2.13992	0.379399	3.48374	0.870988	7.99777	0.638885	5.86549
0.381186	3.45768	0.238774	2.14071	0.380643	3.46551	0.873362	7.95155	0.63997	5.82561
0.382439	3.43998	0.240856	2.14149	0.381893	3.44765	0.875679	7.90558	0.641048	5.78635
0.383699	3.42262	0.242938	2.14225	0.383149	3.43014	0.877942	7.8599	0.642121	5.7477
0.384965	3.40561	0.24502	2.143	0.384413	3.41298	0.880152	7.81451	0.643189	5.70964
0.386238	3.38894	0.247101	2.14374	0.385683	3.39616	0.882312	7.76941	0.644251	5.67216
0.387517	3.37259	0.249183	2.14446	0.386959	3.37968	0.884424	7.72464	0.64531	5.63525
0.388803	3.35657	0.251265	2.14518	0.388242	3.36351	0.88649	7.68018	0.646364	5.59891
0.390095	3.34085	0.253346	2.14588	0.389531	3.34766	0.888511	7.63606	0.647415	5.56312
0.391393	3.32544	0.255428	2.14657	0.390827	3.33211	0.890491	7.59227	0.648463	5.52786
0.392698	3.31032	0.257509	2.14725	0.392129	3.31687	0.892429	7.54884	0.649508	5.49314
0.394009	3.29549	0.259591	2.14792	0.393437	3.30191	0.894328	7.50575	0.65055	5.45894
0.395327	3.28094	0.261672	2.14858	0.394752	3.28724	0.89619	7.46302	0.65159	5.42525
0.39665	3.26666	0.263754	2.14923	0.396073	3.27285	0.898017	7.42065	0.652628	5.39207
0.39798	3.25265	0.265835	2.14987	0.3974	3.25872	0.899808	7.37865	0.653665	5.35938
0.399315	3.2389	0.267916	2.1505	0.398733	3.24486	0.901568	7.33702	0.6547	5.32717
0.400657	3.22541	0.269998	2.15112	0.400072	3.23126	0.903295	7.29576	0.655733	5.29543
0.402004	3.21217	0.272079	2.15173	0.401417	3.21791	0.904992	7.25488	0.656766	5.26417
0.403358	3.19917	0.27416	2.15233	0.402767	3.2048	0.906661	7.21437	0.657798	5.23335
0.404717	3.1864	0.276242	2.15292	0.404124	3.19193	0.908301	7.17423	0.658829	5.20299
0.406082	3.17387	0.278323	2.1535	0.405487	3.1793	0.909915	7.13448	0.65986	5.17307
0.407453	3.16156	0.280404	2.15407	0.406855	3.1669	0.911503	7.0951	0.660891	5.14358
0.40883	3.14948	0.282485	2.15464	0.40823	3.15471	0.913068	7.0561	0.661922	5.11452
0.410212	3.1376	0.284566	2.1552	0.409609	3.14275	0.914608	7.01748	0.662953	5.08587
0.4116	3.12594	0.286647	2.15575	0.410995	3.131	0.916126	6.97924	0.663984	5.05763
0.412994	3.11449	0.288728	2.15629	0.412386	3.11946	0.917623	6.94137	0.665016	5.0298
0.414393	3.10324	0.290809	2.15682	0.413783	3.10812	0.919099	6.90388	0.666048	5.00235
0.415798	3.09218	0.29289	2.15735	0.415185	3.09697	0.920555	6.86676	0.667081	4.9753
0.417208	3.08132	0.294971	2.15787	0.416593	3.08603	0.921993	6.83002	0.668115	4.94862
0.418623	3.07064	0.297052	2.15838	0.418006	3.07527	0.923412	6.79364	0.66915	4.92232
0.420044	3.06015	0.299133	2.15889	0.419424	3.0647	0.924814	6.75764	0.670186	4.89639
0.42147	3.04984	0.301214	2.15939	0.420848	3.05431	0.926199	6.722	0.671224	4.87081
0.422901	3.0397	0.303295	2.15988	0.422277	3.04409	0.927569	6.68672	0.672263	4.84559
0.424337	3.02973	0.305376	2.16036	0.423711	3.03405	0.928923	6.6518	0.673303	4.82071
0.425779	3.01994	0.307457	2.16084	0.42515	3.02419	0.930262	6.61725	0.674345	4.79618
0.427225	3.0103	0.309538	2.16131	0.426595	3.01448	0.931588	6.58305	0.675388	4.77198
0.428677	3.00083	0.311619	2.16178	0.428044	3.00494	0.9329	6.5492	0.676434	4.74811
0.430134	2.99152	0.313699	2.16224	0.429499	2.99556	0.934199	6.5157	0.677481	4.72456
0.431595	2.98236	0.31578	2.16269	0.430958	2.98633	0.935485	6.48255	0.67853	4.70133
0.433062	2.97335	0.317861	2.16314	0.432422	2.97726	0.93676	6.44975	0.679581	4.67841
0.434533	2.96449	0.319942	2.16358	0.433892	2.96833	0.938024	6.41728	0.680634	4.6558
0.43601	2.95577	0.322022	2.16402	0.435366	2.95955	0.939277	6.38515	0.681689	4.63348
0.437491	2.9472	0.324103	2.16445	0.436845	2.95092	0.940519	6.35336	0.682746	4.61147
0.438976	2.93876	0.326184	2.16487	0.438329	2.94242	0.941752	6.3219	0.683806	4.58974
0.440467	2.93046	0.328264	2.16529	0.439817	2.93406	0.942975	6.29076	0.684868	4.5683
0.441962	2.9223	0.330345	2.16571	0.44131	2.92584	0.944189	6.25995	0.685932	4.54714
0.443462	2.91426	0.332426	2.16612	0.442808	2.91774	0.945395	6.22947	0.686999	4.52626
0.444966	2.90635	0.334506	2.16652	0.44431	2.90978	0.946592	6.19929	0.688069	4.50565
0.446474	2.89856	0.336587	2.16692	0.445817	2.90194	0.947781	6.16944	0.68914	4.4853
0.447988	2.8909	0.338667	2.16732	0.447328	2.89422	0.948963	6.13989	0.690215	4.46522
0.449505	2.88336	0.340748	2.16771	0.448844	2.88663	0.950137	6.11065	0.691292	4.44539
0.451027	2.87593	0.342829	2.16809	0.450364	2.87915	0.951304	6.08172	0.692372	4.42582
0.452554	2.86862	0.344909	2.16847	0.451888	2.8718	0.952465	6.05309	0.693454	4.40649
0.454084	2.86143	0.34699	2.16885	0.453417	2.86455	0.95362	6.02475	0.694539	4.38741
0.455619	2.85434	0.34907	2.16922	0.45495	2.85742	0.954768	5.99671	0.695627	4.36857
0.457158	2.84736	0.351151	2.16959	0.456487	2.85039	0.955911	5.96896	0.696718	4.34997
0.458702	2.84049	0.353231	2.16995	0.458029	2.84347	0.957049	5.9415	0.697812	4.3316
0.460249	2.83373	0.355311	2.17031	0.459574	2.83666	0.958181	5.91432	0.698908	4.31346
0.461801	2.82706	0.357392	2.17066	0.461124	2.82995	0.959308	5.88742	0.700008	4.29555
0.463356	2.8205	0.359472	2.17101	0.462678	2.82335	0.96043	5.86079	0.70111	4.27786
0.464916	2.81403	0.361553	2.17136	0.464236	2.81684	0.961549	5.83444	0.702215	4.26038
0.466479	2.80766	0.363633	2.1717	0.465798	2.81043	0.962662	5.80837	0.703324	4.24312
0.468047	2.80139	0.365713	2.17204	0.467363	2.80411	0.963772	5.78256	0.704435	4.22607
0.469618	2.79521	0.367794	2.17237	0.468933	2.79789	0.964878	5.75701	0.705549	4.20923
0.471194	2.78912	0.369874	2.17271	0.470507	2.79176	0.96598	5.73172	0.706667	4.19259
0.472773	2.78311	0.371955	2.17303	0.472084	2.78572	0.967079	5.7067	0.707787	4.17615
0.474356	2.7772	0.374035	2.17336	0.473666	2.77977	0.968175	5.68192	0.708911	4.15991
0.475942	2.77137	0.376115	2.17368	0.475251	2.7739	0.969268	5.6574	0.710037	4.14387
0.477533	2.76563	0.378195	2.17399	0.476839	2.76812	0.970357	5.63313	0.711167	4.12802
0.479127	2.75997	0.380276	2.17431	0.478432	2.76243	0.971445	5.6091	0.7123	4.11235
0.480725	2.75439	0.382356	2.17462	0.480028	2.75681	0.972529	5.58532	0.713436	4.09688
0.482326	2.74889	0.384436	2.17492	0.481628	2.75128	0.973611	5.56177	0.714575	4.08158
0.483931	2.74347	0.386517	2.17523	0.483231	2.74582	0.974691	5.53846	0.715718	4.06647
0.48554	2.73813	0.388597	2.17553	0.484838	2.74045	0.975769	5.51539	0.716863	4.05153
0.487152	2.73286	0.390677	2.17582	0.486449	2.73515	0.976844	5.49254	0.718012	4.03676
0.488767	2.72767	0.392757	2.17612	0.488063	2.72992	0.977918	5.46992	0.719164	4.02217
0.490386	2.72254	0.394837	2.17641	0.48968	2.72477	0.978991	5.44753	0.720319	4.00775
0.492008	2.71749	0.396918	2.1767	0.491301	2.71969	0.980061	5.42536	0.721478	3.99349
0.493634	2.71252	0.398998	2.17698	0.492925	2.71468	0.98113	5.40341	0.722639	3.9794
0.495263	2.70761	0.401078	2.17726	0.494553	2.70974	0.982198	5.38168	0.723804	3.96547
0.496896	2.70276	0.403158	2.17754	0.496184	2.70486	0.983265	5.36016	0.724972	3.9517
0.498531	2.69799	0.405238	2.17782	0.497818	2.70006	0.984331	5.33886	0.726143	3.93808
0.50017	2.69328	0.407318	2.17809	0.499456	2.69532	0.985395	5.31776	0.727318	3.92462
0.501812	2.68863	0.409399	2.17836	0.501097	2.69065	0.986459	5.29687	0.728496	3.91131
0.503458	2.68405	0.411479	2.17863	0.502741	2.68604	0.987522	5.27618	0.729677	3.89815
0.505106	2.67953	0.413559	2.17889	0.504388	2.68149	0.988584	5.25569	0.730861	3.88514
0.506758	2.67507	0.415639	2.17916	0.506038	2.677	0.989646	5.2354	0.732048	3.87228
0.508413	2.67067	0.417719	2.17942	0.507691	2.67258	0.990707	5.21531	0.733239	3.85955
0.510071	2.66633	0.419799	2.17967	0.509348	2.66821	0.991768	5.19541	0.734433	3.84697
0.511731	2.66204	0.421879	2.17993	0.511008	2.6639	0.992828	5.17571	0.73563	3.83453
0.513395	2.65782	0.423959	2.18018	0.51267	2.65965	0.993888	5.15619	0.736831	3.82223
0.515062	2.65365	0.426039	2.18043	0.514336	2.65546	0.994948	5.13686	0.738035	3.81006
0.516732	2.64953	0.428119	2.18068	0.516004	2.65132	0.996008	5.11771	0.739242	3.79802
0.518405	2.64547	0.430199	2.18092	0.517676	2.64724	0.997068	5.09875	0.740452	3.78611
0.520081	2.64146	0.432279	2.18116	0.51935	2.6432	0.998128	5.07997	0.741666	3.77434
0.521759	2.63751	0.434359	2.1814	0.521027	2.63923	0.999188	5.06136	0.742882	3.76269
0.52344	2.63361	0.436439	2.18164	0.522708	2.6353	1.00025	5.04293	0.744102	3.75117
0.525125	2.62975	0.438519	2.18188	0.524391	2.63142			0.745325	3.73977
0.526812	2.62595	0.440599	2.18211	0.526076	2.6276			0.746552	3.72849
0.528501	2.62219	0.442679	2.18234	0.527765	2.62382			0.747782	3.71734
0.530194	2.61849	0.444759	2.18257	0.529456	2.62009			0.749014	3.7063
0.531889	2.61483	0.446839	2.1828	0.53115	2.61641			0.750251	3.69538
0.533587	2.61121	0.448919	2.18302	0.532847	2.61278			0.75149	3.68457
0.535288	2.60765	0.450999	2.18325	0.534547	2.60919			0.752732	3.67388
0.536991	2.60412	0.453079	2.18347	0.536249	2.60565			0.753978	3.6633
0.538697	2.60065	0.455159	2.18369	0.537953	2.60216			0.755227	3.65284
0.540405	2.59721	0.457239	2.1839	0.539661	2.5987			0.756479	3.64248
0.542116	2.59382	0.459319	2.18412	0.541371	2.59529			0.757734	3.63223
0.54383	2.59047	0.461399	2.18433	0.543083	2.59193			0.758993	3.62208
0.545546	2.58716	0.463479	2.18454	0.544798	2.5886			0.760255	3.61205
0.547265	2.5839	0.465558	2.18475	0.546516	2.58532			0.761519	3.60211
0.548986	2.58067	0.467638	2.18496	0.548236	2.58207			0.762787	3.59228
0.550709	2.57748	0.469718	2.18516	0.549958	2.57887			0.764059	3.58254
0.552435	2.57434	0.471798	2.18537	0.551683	2.5757			0.765333	3.57291
0.554163	2.57123	0.473878	2.18557	0.55341	2.57258			0.76661	3.56337
0.555894	2.56816	0.475958	2.18577	0.55514	2.56949			0.767891	3.55393
