Sym0		Asym0		Sym1		Sym2		Sym3		Asym1		Asym2		Asym3		Asym4	
489  Points		496  Points		339  Points		188  Points		164  Points		434  Points		231  Points		168  Points		140  Points	
Freq (MHz)	Vgr (m/ms)	Freq (MHz)	Vgr (m/ms)	Freq (MHz)	Vgr (m/ms)	Freq (MHz)	Vgr (m/ms)	Freq (MHz)	Vgr (m/ms)	Freq (MHz)	Vgr (m/ms)	Freq (MHz)	Vgr (m/ms)	Freq (MHz)	Vgr (m/ms)	Freq (MHz)	Vgr (m/ms)
0.000190502	5.88869	0.000485509	0.480421	0.279509	0.0129329	0.330979	0.15484	0.559019	0.0368385	0.139824	0.316069	0.419264	0.0382238	0.661874	0.0195681	0.698771	0.0264716
0.00567697	5.88822	0.000933115	0.555157	0.279521	0.0217844	0.331123	0.209128	0.559054	0.0585644	0.140118	0.438822	0.4193	0.0641818	0.661893	0.0286137	0.698796	0.050343
0.0111626	5.88667	0.00151998	0.7018	0.27955	0.03955	0.331368	0.317574	0.559129	0.101989	0.140641	0.682348	0.419384	0.116055	0.661928	0.0466687	0.698865	0.0980068
0.0166461	5.88399	0.00224084	0.842158	0.279595	0.0577227	0.331715	0.425481	0.559244	0.145406	0.14139	0.921182	0.419516	0.167799	0.66198	0.0648342	0.698979	0.145581
0.0221267	5.88033	0.00308925	0.975437	0.279657	0.0764901	0.332161	0.532604	0.559399	0.188807	0.142358	1.15393	0.419696	0.219431	0.662048	0.083221	0.699136	0.193048
0.0276035	5.87558	0.00405846	1.101	0.279737	0.095934	0.332707	0.63889	0.559596	0.232103	0.14354	1.37934	0.419925	0.270987	0.662135	0.10183	0.699338	0.240301
0.0330752	5.86973	0.00514085	1.21839	0.279836	0.116292	0.333352	0.744089	0.559832	0.275337	0.144928	1.59643	0.420201	0.322389	0.662238	0.120665	0.699584	0.287347
0.0385411	5.86278	0.00632881	1.32742	0.279954	0.137671	0.334094	0.84814	0.560109	0.318517	0.146515	1.80445	0.420526	0.373558	0.662359	0.139805	0.699874	0.334124
0.0439999	5.85461	0.00761435	1.42799	0.280092	0.160214	0.334932	0.95092	0.560426	0.361592	0.148291	2.00282	0.420897	0.42448	0.662499	0.159335	0.700207	0.380583
0.0494505	5.84523	0.00898972	1.5203	0.280252	0.183987	0.335866	1.05226	0.560782	0.404529	0.150247	2.19126	0.421317	0.475201	0.662656	0.179205	0.700583	0.4267
0.0548918	5.8346	0.0104473	1.60458	0.280435	0.209195	0.336893	1.15217	0.561179	0.447337	0.152374	2.36964	0.421783	0.525666	0.662833	0.199537	0.701002	0.472498
0.0603226	5.82263	0.0119797	1.68113	0.280642	0.23588	0.338013	1.25056	0.561616	0.490032	0.154662	2.53795	0.422296	0.57584	0.663028	0.220277	0.701463	0.517951
0.0657416	5.80923	0.0135799	1.75039	0.280875	0.264127	0.339223	1.34728	0.562092	0.532577	0.157103	2.69638	0.422856	0.62565	0.663243	0.24147	0.701967	0.562934
0.0711475	5.79439	0.0152413	1.81279	0.281134	0.294109	0.340523	1.44237	0.562608	0.574965	0.159687	2.84521	0.423462	0.675099	0.663478	0.263201	0.702512	0.607491
0.0765389	5.77802	0.0169578	1.86883	0.281423	0.325801	0.341911	1.53586	0.563164	0.617188	0.162405	2.98476	0.424114	0.724193	0.663734	0.285424	0.703099	0.651635
0.0819142	5.75995	0.0187237	1.91902	0.281742	0.359375	0.343385	1.62763	0.563758	0.659226	0.165249	3.11538	0.424811	0.772868	0.66401	0.308116	0.703727	0.695317
0.0872719	5.74005	0.0205337	1.9638	0.282092	0.394956	0.344944	1.71771	0.564392	0.701042	0.16821	3.23754	0.425554	0.821147	0.664308	0.331382	0.704395	0.738516
0.0926102	5.71829	0.022383	2.00363	0.282478	0.432572	0.346586	1.80611	0.565065	0.742633	0.171281	3.35164	0.426342	0.869	0.664628	0.355208	0.705103	0.781262
0.0979273	5.69452	0.0242672	2.03898	0.282899	0.472357	0.348309	1.89274	0.565776	0.784067	0.174455	3.45811	0.427173	0.916364	0.66497	0.379495	0.70585	0.823541
0.103221	5.6686	0.0261824	2.07028	0.283358	0.514425	0.350113	1.97774	0.566526	0.825261	0.177725	3.55745	0.428049	0.963266	0.665335	0.404413	0.706637	0.865326
0.10849	5.64027	0.028125	2.09794	0.283857	0.558937	0.351995	2.06109	0.567314	0.866193	0.181084	3.65	0.428968	1.00968	0.665723	0.429859	0.707463	0.906635
0.113731	5.60939	0.0300917	2.12235	0.284399	0.606067	0.353953	2.14276	0.56814	0.906894	0.184527	3.73622	0.42993	1.05557	0.666136	0.455849	0.708327	0.947504
0.118943	5.57583	0.0320797	2.14377	0.284986	0.655942	0.355987	2.22275	0.569004	0.947355	0.188046	3.81653	0.430935	1.10097	0.666573	0.482413	0.709228	0.987862
0.124121	5.53932	0.0340864	2.16253	0.285622	0.708744	0.358095	2.30114	0.569905	0.987554	0.191638	3.89123	0.431982	1.14586	0.667035	0.509468	0.710168	1.02778
0.129264	5.49963	0.0361094	2.17894	0.286307	0.764689	0.360275	2.37794	0.570844	1.02745	0.195297	3.96064	0.43307	1.19016	0.667522	0.537063	0.711144	1.06726
0.134369	5.4565	0.0381466	2.19332	0.287046	0.823992	0.362526	2.4531	0.57182	1.0671	0.199018	4.02514	0.4342	1.23393	0.668035	0.565227	0.712156	1.10624
0.139432	5.40965	0.0399321	2.20436	0.287843	0.886933	0.364846	2.52674	0.572832	1.10649	0.202798	4.08498	0.43537	1.27717	0.668575	0.593871	0.713205	1.14485
0.14445	5.3588	0.0414609	2.21272	0.288699	0.953783	0.367234	2.59887	0.573882	1.14558	0.20663	4.14044	0.43658	1.31983	0.669142	0.623032	0.71429	1.18304
0.149418	5.30368	0.0427291	2.21896	0.28962	1.02472	0.369689	2.66944	0.574967	1.18434	0.210513	4.19181	0.437829	1.36195	0.669736	0.652718	0.715409	1.22076
0.154332	5.24391	0.0437344	2.22357	0.290609	1.10015	0.372209	2.73852	0.576088	1.22283	0.214441	4.23924	0.439117	1.40348	0.670358	0.682865	0.716564	1.2581
0.159189	5.17914	0.0444748	2.22666	0.29167	1.18033	0.374792	2.80615	0.577246	1.26099	0.218412	4.28299	0.440444	1.44451	0.671009	0.713496	0.717754	1.29506
0.163983	5.10915	0.0449492	2.22854	0.292808	1.26556	0.377438	2.87233	0.578438	1.29886	0.222422	4.32326	0.441809	1.48496	0.671688	0.744582	0.718977	1.33162
0.168709	5.03355	0.0456318	2.23129	0.294028	1.35618	0.380144	2.9371	0.579666	1.33643	0.226468	4.3602	0.443211	1.52485	0.672396	0.77614	0.720235	1.36784
0.173363	4.952	0.0463748	2.234	0.295335	1.45238	0.382911	3.00042	0.580928	1.37364	0.230547	4.3941	0.444651	1.56427	0.673134	0.808128	0.721526	1.40373
0.177937	4.86434	0.0473865	2.23739	0.296734	1.55448	0.385735	3.06239	0.582226	1.41056	0.234126	4.42118	0.446126	1.60313	0.673902	0.840536	0.722851	1.43926
0.182427	4.77033	0.0486682	2.2414	0.298232	1.66259	0.388617	3.12305	0.583557	1.4472	0.237194	4.44251	0.447638	1.64143	0.6747	0.873345	0.724208	1.47443
0.186826	4.66975	0.0502211	2.24572	0.299832	1.77685	0.391555	3.18241	0.584922	1.48348	0.239741	4.45905	0.449185	1.6793	0.675529	0.906518	0.725598	1.50931
0.191128	4.56256	0.0520464	2.2502	0.301543	1.89733	0.394547	3.2404	0.586321	1.51942	0.241762	4.47122	0.450767	1.71673	0.676389	0.940123	0.727021	1.54391
0.195328	4.44889	0.0541451	2.25455	0.303368	2.02382	0.397593	3.29714	0.587753	1.55506	0.243251	4.48	0.452384	1.75364	0.677281	0.974082	0.728475	1.57819
0.199418	4.32892	0.0562475	2.25819	0.305314	2.15611	0.400691	3.35268	0.589219	1.59036	0.244206	4.48538	0.454035	1.79011	0.678205	1.00838	0.729961	1.61217
0.203394	4.20302	0.058353	2.26122	0.307386	2.29381	0.40384	3.40691	0.590717	1.62537	0.24558	4.49265	0.455719	1.82621	0.67916	1.043	0.731479	1.64593
0.20725	4.07171	0.060461	2.26373	0.309588	2.43636	0.407039	3.46002	0.592248	1.66002	0.247076	4.50036	0.457438	1.86193	0.680148	1.07795	0.733028	1.67946
0.210981	3.93565	0.0625712	2.26571	0.311925	2.5829	0.410288	3.51196	0.59381	1.69438	0.249115	4.5103	0.459189	1.89727	0.681169	1.11321	0.734609	1.71269
0.214584	3.79579	0.0646829	2.26725	0.314401	2.73255	0.413584	3.56274	0.595405	1.72846	0.2517	4.5221	0.460973	1.93228	0.682222	1.14873	0.73622	1.74568
0.218054	3.6532	0.066796	2.26842	0.317017	2.88427	0.416926	3.61245	0.597031	1.7622	0.254834	4.53507	0.46279	1.96708	0.683309	1.18453	0.737862	1.77847
0.221391	3.50893	0.0689099	2.26927	0.319776	3.03677	0.420315	3.66104	0.598689	1.79561	0.258522	4.54858	0.464638	2.00158	0.68443	1.22054	0.739534	1.81103
0.224593	3.36432	0.0710245	2.26987	0.322676	3.1889	0.423748	3.70855	0.600377	1.82873	0.262767	4.56199	0.466519	2.03587	0.685584	1.25682	0.741236	1.8434
0.22766	3.22063	0.0731396	2.27021	0.325319	3.32024	0.427225	3.75509	0.602096	1.86159	0.267023	4.5732	0.468432	2.07003	0.686772	1.29335	0.742969	1.87563
0.230594	3.07907	0.0752548	2.27031	0.327655	3.43058	0.430745	3.80064	0.603846	1.89412	0.271289	4.58218	0.470377	2.10399	0.687994	1.33	0.744731	1.90765
0.233398	2.94089	0.07737	2.27025	0.329645	3.52025	0.434307	3.84515	0.605626	1.92638	0.275562	4.58897	0.472353	2.13794	0.68925	1.36682	0.746524	1.93945
0.236074	2.80714	0.0794851	2.27003	0.331253	3.59005	0.437911	3.88875	0.607435	1.95836	0.27984	4.59365	0.47436	2.17184	0.690541	1.40384	0.748345	1.97111
0.238628	2.67872	0.0816	2.26971	0.332457	3.64059	0.441554	3.93144	0.609275	1.99012	0.284121	4.59624	0.4764	2.20574	0.691866	1.44098	0.750196	2.00265
0.241066	2.55635	0.0837145	2.26925	0.333235	3.67257	0.445236	3.97323	0.611144	2.02161	0.288404	4.59677	0.478471	2.2397	0.693226	1.47818	0.752077	2.03402
0.243392	2.44067	0.0858285	2.26865	0.334367	3.71808	0.448957	4.01419	0.613042	2.05281	0.292687	4.59532	0.480573	2.27378	0.69462	1.51553	0.753987	2.06526
0.245614	2.33199	0.0879419	2.26803	0.335612	3.76668	0.452716	4.05428	0.614969	2.08379	0.296967	4.59188	0.482707	2.30803	0.69605	1.55295	0.755925	2.09639
0.247737	2.2305	0.0900547	2.26735	0.337331	3.83146	0.456512	4.0936	0.616925	2.11455	0.301243	4.58639	0.484874	2.34247	0.697514	1.59036	0.757893	2.12738
0.24977	2.13629	0.0921668	2.26657	0.339547	3.91124	0.460344	4.13211	0.618909	2.1451	0.305513	4.57895	0.487072	2.37722	0.699013	1.62784	0.759889	2.1583
0.251718	2.04932	0.0942782	2.26578	0.342287	4.00407	0.464212	4.16985	0.620922	2.17542	0.309776	4.56956	0.489303	2.41223	0.700547	1.66528	0.761915	2.18909
0.253589	1.96933	0.0963889	2.26498	0.345581	4.1078	0.468114	4.20689	0.622963	2.2056	0.314028	4.55824	0.491567	2.44761	0.702116	1.70274	0.763969	2.21975
0.255388	1.89607	0.0984987	2.26414	0.349463	4.21984	0.472051	4.24325	0.625032	2.23563	0.318269	4.54499	0.493864	2.48342	0.70372	1.74016	0.766051	2.2504
0.257122	1.82923	0.100608	2.26324	0.353445	4.32409	0.476021	4.27891	0.627129	2.26544	0.322497	4.52977	0.496195	2.51967	0.705359	1.77751	0.768162	2.28094
0.258796	1.76845	0.102716	2.26236	0.35752	4.42041	0.480024	4.3139	0.629253	2.29512	0.32671	4.51259	0.498559	2.55642	0.707032	1.81477	0.770301	2.3114
0.260417	1.71338	0.104823	2.26147	0.361682	4.50879	0.48406	4.34828	0.631405	2.32465	0.330906	4.49353	0.500959	2.59374	0.70874	1.85187	0.772469	2.34186
0.261989	1.66359	0.10693	2.26056	0.365922	4.58941	0.488127	4.38203	0.633585	2.35414	0.335083	4.47251	0.503393	2.63161	0.710483	1.88887	0.774665	2.37222
0.263517	1.61864	0.109036	2.25966	0.370233	4.6625	0.492225	4.41519	0.635792	2.38352	0.33924	4.44954	0.505862	2.67008	0.71226	1.92573	0.776889	2.40255
0.265005	1.57827	0.111141	2.2588	0.37461	4.7283	0.496354	4.44781	0.638026	2.41276	0.343375	4.42473	0.508368	2.70915	0.714071	1.96238	0.779142	2.43282
0.266458	1.54205	0.113245	2.2579	0.379044	4.78728	0.500513	4.47988	0.640288	2.44202	0.347485	4.39793	0.51091	2.74892	0.715917	1.99884	0.781423	2.46303
0.267879	1.50961	0.115348	2.25701	0.38353	4.83969	0.504702	4.51135	0.642577	2.47125	0.35157	4.36919	0.51349	2.78934	0.717796	2.03507	0.783732	2.49328
0.269271	1.48069	0.117451	2.25616	0.388062	4.88593	0.50892	4.54236	0.644893	2.5004	0.355627	4.33859	0.516108	2.8304	0.719709	2.07105	0.786069	2.52352
0.270638	1.45493	0.119552	2.2553	0.392635	4.92645	0.513166	4.57287	0.647236	2.52964	0.359654	4.30612	0.518764	2.87218	0.721655	2.10676	0.788434	2.55369
0.271982	1.43213	0.121653	2.25447	0.397242	4.96146	0.517441	4.60285	0.649607	2.55888	0.363651	4.27172	0.52146	2.91457	0.723635	2.14214	0.790827	2.58385
0.273306	1.41193	0.123753	2.25365	0.40188	4.99142	0.521743	4.63233	0.652004	2.58814	0.367614	4.23551	0.524195	2.95759	0.725647	2.17724	0.793249	2.61407
0.274613	1.39416	0.125852	2.25287	0.406543	5.01665	0.526072	4.66134	0.654429	2.61752	0.371543	4.19752	0.526971	3.00125	0.727692	2.212	0.795698	2.64425
0.275904	1.37862	0.127951	2.25208	0.411228	5.03744	0.530429	4.68991	0.656882	2.64697	0.375436	4.15769	0.529788	3.04541	0.729769	2.24642	0.798176	2.67445
0.277182	1.36504	0.130049	2.25128	0.41593	5.05405	0.534247	4.7144	0.659362	2.67657	0.37929	4.11613	0.532276	3.08432	0.731878	2.28047	0.800682	2.70467
0.278448	1.35327	0.132146	2.25052	0.420645	5.06676	0.537517	4.73502	0.661869	2.70634	0.383106	4.0729	0.534422	3.11782	0.734018	2.31408	0.803216	2.73486
0.279704	1.3432	0.134243	2.24977	0.425371	5.07586	0.540231	4.75189	0.664405	2.73628	0.38688	4.02807	0.536215	3.14562	0.73619	2.34731	0.805778	2.76513
0.280951	1.33463	0.136338	2.24906	0.430104	5.08154	0.542385	4.76499	0.666968	2.76644	0.390611	3.98167	0.537643	3.16773	0.738392	2.38016	0.808368	2.79544
0.28219	1.32738	0.138433	2.24838	0.43484	5.08402	0.543972	4.7747	0.66956	2.79678	0.394299	3.93379	0.5387	3.1841	0.740625	2.41253	0.810987	2.82572
0.283424	1.32145	0.140528	2.24771	0.439577	5.08346	0.544989	4.7808	0.672179	2.82745	0.397942	3.88454	0.539379	3.1945	0.742888	2.44445	0.813634	2.85603
0.284653	1.31663	0.142622	2.24705	0.444313	5.08003	0.546454	4.78949	0.674828	2.85839	0.401538	3.83395	0.540359	3.2096	0.74518	2.47592	0.816309	2.88641
0.285878	1.31283	0.144715	2.24638	0.449043	5.07392	0.54805	4.79906	0.677506	2.88959	0.405086	3.78218	0.54143	3.22607	0.747501	2.50687	0.819012	2.91684
0.286942	1.31029	0.146808	2.24576	0.453767	5.0653	0.550224	4.81174	0.680213	2.92122	0.408585	3.72938	0.542895	3.24833	0.749851	2.5374	0.821744	2.94724
0.287848	1.30857	0.1489	2.24512	0.458482	5.05425	0.552983	4.82764	0.682949	2.95319	0.412035	3.67555	0.544762	3.2767	0.752229	2.56742	0.824504	2.97771
0.288597	1.30758	0.150991	2.24454	0.463185	5.04089	0.556331	4.84675	0.685716	2.98559	0.415434	3.62091	0.547042	3.31106	0.754635	2.59691	0.827293	3.00825
0.289189	1.30704	0.153082	2.244	0.467875	5.02535	0.560275	4.86872	0.688512	3.01843	0.418782	3.56558	0.549747	3.35132	0.757068	2.62593	0.83011	3.03879
0.289623	1.30672	0.155173	2.24339	0.472549	5.0078	0.564823	4.8934	0.69134	3.05168	0.422078	3.50964	0.552891	3.39746	0.759528	2.65439	0.832955	3.06934
0.289902	1.30655	0.157263	2.24284	0.477207	4.98826	0.569393	4.91757	0.694199	3.08552	0.425322	3.45329	0.556078	3.44349	0.762015	2.68238	0.835829	3.09997
0.290302	1.30633	0.159352	2.24234	0.481845	4.96684	0.573986	4.94119	0.69709	3.11986	0.428513	3.39662	0.559307	3.48918	0.764527	2.70986	0.838731	3.13061
0.290736	1.30622	0.161441	2.2418	0.486462	4.94365	0.5786	4.96421	0.700012	3.1547	0.431651	3.33983	0.562579	3.5345	0.767064	2.73678	0.841662	3.16128
0.291327	1.30627	0.163529	2.24131	0.491056	4.91872	0.583236	4.98656	0.702968	3.19019	0.434737	3.28302	0.565893	3.57932	0.769626	2.76323	0.844622	3.192
0.292075	1.30653	0.165617	2.24084	0.495627	4.89219	0.587892	5.00828	0.705957	3.2263	0.437769	3.22631	0.569249	3.62349	0.772213	2.78916	0.84761	3.22267
0.292979	1.3071	0.167705	2.24035	0.500173	4.8641	0.592569	5.02932	0.70898	3.26308	0.440748	3.16982	0.572645	3.66692	0.774824	2.81459	0.850627	3.25341
0.294041	1.30817	0.169792	2.23989	0.504691	4.83456	0.597264	5.04958	0.712037	3.30051	0.443675	3.11375	0.576082	3.70947	0.777458	2.83951	0.853673	3.28419
0.295261	1.30981	0.171879	2.23943	0.509181	4.8036	0.601978	5.06912	0.71513	3.33862	0.446551	3.05821	0.579558	3.75107	0.780115	2.86395	0.856747	3.31492
0.296482	1.31194	0.173965	2.23899	0.513642	4.77132	0.60671	5.08783	0.718259	3.37749	0.449374	3.00323	0.583072	3.79157	0.782794	2.88791	0.85985	3.34561
0.297705	1.31451	0.176051	2.23858	0.518072	4.73782	0.611458	5.10564	0.721424	3.41713	0.452147	2.94901	0.586623	3.8309	0.785496	2.91139	0.862981	3.37639
0.298931	1.31741	0.178136	2.2382	0.52247	4.70308	0.616223	5.12261	0.724212	3.45231	0.454869	2.89564	0.59021	3.86899	0.788219	2.93438	0.866141	3.40711
0.30016	1.32069	0.180221	2.23775	0.526836	4.66719	0.621004	5.1386	0.726612	3.48269	0.457542	2.84314	0.593832	3.90569	0.790964	2.95693	0.86933	3.43778
0.301392	1.3243	0.182306	2.23738	0.531167	4.63023	0.625799	5.15358	0.728612	3.50821	0.460167	2.79162	0.597488	3.94102	0.793729	2.97912	0.872547	3.46843
0.302628	1.32816	0.18439	2.23704	0.535464	4.59231	0.630607	5.16756	0.730205	3.52871	0.462744	2.74121	0.601176	3.97484	0.796515	3.00085	0.875793	3.49905
0.303867	1.33229	0.186475	2.23666	0.539724	4.55346	0.635428	5.18045	0.731381	3.5439	0.465275	2.69191	0.604895	4.0071	0.799321	3.02212	0.879067	3.5296
0.30511	1.3367	0.188558	2.23628	0.543949	4.51372	0.64026	5.19216	0.732137	3.55359	0.46776	2.64375	0.608643	4.0378	0.802147	3.04305	0.88237	3.56009
0.306358	1.34132	0.190642	2.23591	0.548135	4.47319	0.645103	5.20263	0.733227	3.56758	0.470201	2.59686	0.612419	4.06685	0.804992	3.0636	0.885701	3.59052
0.30761	1.34612	0.192725	2.23558	0.552284	4.43187	0.649955	5.2119	0.734417	3.58306	0.472599	2.55122	0.616221	4.09423	0.807855	3.08384	0.889061	3.62084
0.308866	1.35108	0.194807	2.2353	0.556394	4.38985	0.654815	5.2199	0.736043	3.6043	0.474955	2.50687	0.620048	4.11989	0.810738	3.10372	0.892448	3.65109
0.310127	1.3562	0.19689	2.23498	0.560464	4.34724	0.659681	5.2265	0.738114	3.63132	0.477271	2.46382	0.623898	4.14382	0.813639	3.12327	0.895864	3.68119
0.311393	1.36147	0.198972	2.23464	0.564494	4.30404	0.664554	5.2317	0.740638	3.66452	0.479546	2.42204	0.627769	4.16604	0.816181	3.14006	0.899308	3.71122
0.312664	1.36685	0.201054	2.23432	0.568484	4.26035	0.66943	5.23551	0.743629	3.70415	0.481784	2.38159	0.631661	4.18659	0.81836	3.15427	0.902779	3.7411
0.31394	1.37236	0.203135	2.23405	0.572433	4.21621	0.67431	5.23782	0.747102	3.75038	0.483984	2.34248	0.63557	4.20533	0.820168	3.16588	0.906279	3.77083
0.315222	1.37801	0.205217	2.23377	0.57634	4.17165	0.67919	5.23865	0.750618	3.79755	0.486149	2.30464	0.639497	4.22235	0.821603	3.17492	0.909806	3.8004
0.316508	1.38373	0.207298	2.23348	0.580206	4.12674	0.684071	5.23789	0.754178	3.84564	0.488279	2.26811	0.643438	4.23768	0.822661	3.18168	0.91336	3.82981
0.3178	1.38948	0.209379	2.23323	0.58403	4.08158	0.688951	5.23549	0.757784	3.89462	0.490375	2.23289	0.647393	4.25127	0.823339	3.18598	0.916942	3.85904
0.319097	1.39532	0.211459	2.23296	0.587812	4.03622	0.693827	5.23159	0.761435	3.94453	0.492439	2.19895	0.65136	4.26319	0.824315	3.19201	0.920551	3.88806
0.3204	1.40128	0.213539	2.23267	0.591551	3.99069	0.698699	5.22604	0.765134	3.99534	0.494473	2.16619	0.655337	4.27344	0.825378	3.19857	0.924187	3.91688
0.321708	1.40723	0.215619	2.23242	0.595248	3.94504	0.703565	5.21884	0.76888	4.04703	0.496476	2.13469	0.659323	4.28204	0.826828	3.20748	0.92785	3.9455
0.323022	1.4132	0.217699	2.23219	0.598902	3.89932	0.708424	5.21004	0.772675	4.09951	0.49845	2.10436	0.663316	4.28898	0.828666	3.21867	0.931539	3.97389
0.324342	1.41927	0.219779	2.23196	0.602514	3.85357	0.713273	5.1996	0.776519	4.15281	0.500397	2.07517	0.667315	4.29435	0.830899	3.23212	0.935255	4.00197
0.325667	1.42534	0.221858	2.23174	0.606083	3.80789	0.718113	5.1876	0.780414	4.20688	0.502317	2.04718	0.671318	4.29818	0.833529	3.24776	0.938997	4.02985
0.326998	1.43145	0.223938	2.23148	0.60961	3.76234	0.72294	5.17406	0.784358	4.26165	0.504212	2.02025	0.675324	4.30042	0.836564	3.26562	0.942764	4.05748
0.328334	1.43758	0.226016	2.23128	0.613094	3.71686	0.727754	5.15901	0.788355	4.31697	0.506082	1.99441	0.679332	4.30113	0.839615	3.2833	0.946557	4.08476
0.329676	1.44369	0.228095	2.23106	0.616536	3.6716	0.732553	5.14252	0.792403	4.37283	0.507928	1.96959	0.683339	4.30039	0.842682	3.30086	0.950376	4.1118
0.331024	1.44982	0.230174	2.23081	0.619935	3.62663	0.737336	5.1246	0.796503	4.42918	0.509752	1.94575	0.687345	4.29823	0.845765	3.31836	0.954219	4.13854
0.332378	1.45596	0.232252	2.23061	0.623293	3.58188	0.742102	5.10539	0.800656	4.48584	0.511554	1.92292	0.691348	4.29462	0.848865	3.33571	0.957589	4.16162
0.333737	1.46207	0.23433	2.23044	0.62661	3.53742	0.74685	5.08502	0.804862	4.5427	0.513335	1.90103	0.695348	4.28963	0.851981	3.35303	0.960476	4.18103
0.335102	1.4682	0.236408	2.23024	0.629885	3.49336	0.751578	5.06355	0.809121	4.59966	0.515096	1.88005	0.699342	4.28329	0.855113	3.3703	0.962873	4.19696
0.336473	1.47434	0.238486	2.23004	0.633119	3.44969	0.756285	5.04106	0.813433	4.65659	0.516838	1.85993	0.703329	4.27562	0.858261	3.3875	0.964775	4.20952
0.33785	1.48045	0.240564	2.22986	0.636313	3.40643	0.760971	5.0177	0.817798	4.71329	0.518562	1.84068	0.707309	4.26665	0.861425	3.40463	0.966178	4.21867
