Sym0		Asym0		Sym1		Sym2		Sym3		Sym4		Asym1		Asym3		Asym4	
484  Points		494  Points		484  Points		303  Points		159  Points		145  Points		421  Points		186  Points		144  Points	
Freq (MHz)	Vgr (m/ms)	Freq (MHz)	Vgr (m/ms)	Freq (MHz)	Vgr (m/ms)	Freq (MHz)	Vgr (m/ms)	Freq (MHz)	Vgr (m/ms)	Freq (MHz)	Vgr (m/ms)	Freq (MHz)	Vgr (m/ms)	Freq (MHz)	Vgr (m/ms)	Freq (MHz)	Vgr (m/ms)
0.00240364	6.82677	0.000401507	0.484496	0.00187795	6.82689	0.279535	0.0868819	0.333245	0.0712798	0.559025	0.0652317	0.139788	0.316572	0.419285	0.100271	0.666492	0.0197227
0.00876411	6.82593	0.00085291	0.57088	0.00823853	6.82606	0.279616	0.115732	0.333312	0.125874	0.559086	0.0967172	0.140083	0.478713	0.419379	0.139126	0.666511	0.0281059
0.015123	6.82357	0.00146528	0.739798	0.0145976	6.8238	0.279751	0.173206	0.33348	0.235164	0.559206	0.15968	0.14068	0.800268	0.419545	0.216802	0.666545	0.0449792
0.0214791	6.81987	0.00223144	0.900243	0.0209539	6.82023	0.279939	0.230073	0.33375	0.344761	0.559384	0.222543	0.141574	1.11511	0.419783	0.294298	0.666594	0.062173
0.0278311	6.81489	0.00314278	1.05084	0.0273063	6.81535	0.28018	0.286166	0.334122	0.454823	0.55962	0.285282	0.142758	1.4209	0.420093	0.371505	0.66666	0.0797881
0.0341779	6.80852	0.00418957	1.19077	0.0336536	6.80911	0.280472	0.341368	0.334598	0.565377	0.559915	0.347918	0.144222	1.71573	0.420475	0.44843	0.666743	0.097953
0.040518	6.80076	0.00536165	1.31959	0.0399944	6.80147	0.280816	0.395523	0.335176	0.676476	0.560269	0.410421	0.145955	1.99812	0.420929	0.524935	0.666843	0.116778
0.0468503	6.79154	0.00664848	1.43711	0.0455136	6.79371	0.281209	0.448536	0.335858	0.788223	0.56068	0.472731	0.147945	2.26694	0.421453	0.601042	0.666961	0.136263
0.0531733	6.78078	0.00803955	1.54348	0.0502132	6.78612	0.281652	0.500434	0.336645	0.900683	0.56115	0.534804	0.150179	2.52143	0.422049	0.676644	0.667097	0.156558
0.0594856	6.76843	0.00952459	1.6391	0.0540951	6.77927	0.282142	0.551276	0.337536	1.01384	0.561677	0.59662	0.152643	2.76131	0.422714	0.751602	0.667252	0.177737
0.0657855	6.75435	0.0110938	1.72451	0.0571618	6.7734	0.282679	0.601033	0.338534	1.12764	0.562261	0.658215	0.155324	2.98655	0.423449	0.826007	0.667428	0.199808
0.0720716	6.73849	0.012738	1.80027	0.0594148	6.76885	0.283262	0.649862	0.339638	1.24209	0.562903	0.719516	0.158208	3.19731	0.424253	0.899743	0.667625	0.222783
0.078342	6.72068	0.0144484	1.86717	0.060856	6.76579	0.28389	0.697936	0.340848	1.35702	0.563602	0.780449	0.161282	3.39398	0.425126	0.972729	0.667843	0.24676
0.0845948	6.70073	0.0162173	1.92599	0.0629265	6.76121	0.284562	0.74545	0.342166	1.47234	0.564357	0.841083	0.164533	3.57711	0.426066	1.04494	0.668085	0.271789
0.090828	6.67856	0.0180373	1.9774	0.0651755	6.75606	0.285279	0.792725	0.343592	1.58799	0.565169	0.901342	0.167948	3.74738	0.427073	1.11628	0.66835	0.297751
0.0970396	6.654	0.019902	2.02223	0.0682312	6.74864	0.286039	0.840034	0.345125	1.70371	0.566037	0.961214	0.171515	3.9054	0.428146	1.18673	0.668639	0.324772
0.103227	6.62677	0.0218055	2.06113	0.0720909	6.73864	0.286844	0.887704	0.346767	1.81934	0.56696	1.02068	0.175225	4.05189	0.429284	1.25631	0.668955	0.352813
0.109388	6.59663	0.0237427	2.09477	0.0767504	6.7255	0.287694	0.936241	0.348515	1.93475	0.567939	1.0797	0.179066	4.18762	0.430487	1.32492	0.669297	0.381795
0.115519	6.56332	0.0257089	2.12373	0.0822044	6.70868	0.288589	0.986075	0.350372	2.04969	0.568972	1.13827	0.183028	4.31317	0.431753	1.39248	0.669666	0.411854
0.121618	6.52656	0.0277	2.14863	0.0884454	6.68732	0.289531	1.03762	0.352335	2.16393	0.57006	1.19638	0.187103	4.42928	0.433082	1.45899	0.670064	0.442895
0.127681	6.48601	0.0297126	2.16993	0.0946655	6.66368	0.290522	1.0915	0.354404	2.27727	0.571202	1.25399	0.191282	4.53656	0.434472	1.52447	0.670492	0.474875
0.133704	6.44132	0.0317434	2.18806	0.100862	6.6375	0.291565	1.14827	0.356578	2.38962	0.572397	1.31107	0.195556	4.63562	0.435922	1.58886	0.670949	0.507854
0.139683	6.39199	0.0335258	2.20172	0.107034	6.60852	0.292662	1.20857	0.358857	2.50064	0.573645	1.36765	0.19992	4.72703	0.437432	1.65208	0.671438	0.541804
0.145615	6.33757	0.0350535	2.21184	0.113177	6.57645	0.293817	1.273	0.361238	2.61018	0.574945	1.42369	0.204365	4.81125	0.439001	1.71414	0.671959	0.576672
0.151493	6.27766	0.0363216	2.21926	0.119288	6.54105	0.295034	1.34231	0.363721	2.71816	0.576298	1.47916	0.208885	4.8888	0.440626	1.77507	0.672512	0.612423
0.157312	6.2116	0.0373271	2.22474	0.125365	6.50199	0.296318	1.4172	0.366303	2.82433	0.577701	1.53407	0.213474	4.96012	0.442308	1.8348	0.6731	0.649062
0.163067	6.1388	0.0380681	2.22832	0.131404	6.45896	0.297675	1.49836	0.368983	2.92863	0.579156	1.58836	0.218127	5.02562	0.444045	1.89333	0.673722	0.686599
0.168751	6.05868	0.0385428	2.23047	0.137401	6.41144	0.29911	1.58663	0.37176	3.03088	0.580661	1.64208	0.222839	5.08559	0.445836	1.9507	0.674379	0.725051
0.174357	5.9705	0.0392261	2.23348	0.143351	6.35904	0.300631	1.68275	0.374631	3.13103	0.582216	1.69518	0.227604	5.1404	0.44768	2.00684	0.675073	0.764309
0.179877	5.87363	0.0399698	2.23653	0.14925	6.30131	0.302246	1.78746	0.377594	3.22899	0.58382	1.7477	0.232418	5.19042	0.449576	2.06177	0.675803	0.804372
0.185302	5.76747	0.0409829	2.24041	0.155093	6.23762	0.303962	1.90153	0.380648	3.32464	0.585473	1.79957	0.237276	5.23581	0.451522	2.11553	0.676572	0.845315
0.190624	5.65132	0.0422664	2.24475	0.160873	6.16747	0.305789	2.02551	0.38379	3.41803	0.587173	1.85078	0.242174	5.27687	0.453518	2.16805	0.677379	0.887063
0.195832	5.52465	0.0438218	2.24939	0.166585	6.09024	0.307736	2.15988	0.387017	3.50908	0.588921	1.90142	0.247109	5.31387	0.455562	2.21948	0.678225	0.929545
0.200918	5.38716	0.0456501	2.25401	0.172222	6.00523	0.309814	2.30506	0.390328	3.59779	0.590716	1.95135	0.252076	5.34693	0.457654	2.26974	0.679111	0.972832
0.205871	5.23861	0.0477524	2.25834	0.177775	5.91178	0.312032	2.46101	0.393721	3.68417	0.592557	2.00061	0.257072	5.3762	0.459791	2.31886	0.680037	1.01693
0.21068	5.07906	0.0498583	2.26186	0.183238	5.80925	0.3144	2.62745	0.397193	3.76816	0.594444	2.04926	0.262094	5.40194	0.461975	2.36691	0.681006	1.06176
0.215335	4.90892	0.0519671	2.26464	0.1886	5.69697	0.316928	2.80382	0.400743	3.84978	0.596376	2.09726	0.267138	5.42426	0.464202	2.41388	0.682016	1.10732
0.219827	4.72905	0.0540782	2.26673	0.193853	5.57436	0.319624	2.98914	0.404367	3.92917	0.598352	2.14462	0.272201	5.44326	0.466473	2.45984	0.683069	1.15364
0.224147	4.54055	0.0561909	2.26829	0.198987	5.44106	0.322498	3.18186	0.408064	4.00628	0.600372	2.1913	0.277281	5.459	0.468786	2.5048	0.684166	1.20063
0.228288	4.34504	0.0583049	2.26939	0.203992	5.29678	0.325553	3.38009	0.411832	4.08112	0.602435	2.23728	0.282373	5.47167	0.47114	2.54889	0.685306	1.24833
0.232244	4.14459	0.0604197	2.27009	0.208857	5.14139	0.328796	3.58172	0.415669	4.1538	0.604541	2.28265	0.287477	5.48131	0.473535	2.59209	0.686492	1.29678
0.236011	3.94139	0.062535	2.27044	0.213573	4.97523	0.332227	3.78431	0.419572	4.2244	0.606689	2.3274	0.292587	5.48794	0.47597	2.63448	0.687723	1.34585
0.239588	3.73793	0.0646504	2.27055	0.218128	4.79894	0.335848	3.9853	0.423541	4.29286	0.608878	2.37148	0.297703	5.49167	0.478444	2.67618	0.689	1.39557
0.242976	3.53675	0.0667659	2.27045	0.222515	4.61361	0.339654	4.18226	0.427572	4.35932	0.611108	2.4149	0.30282	5.49254	0.480957	2.71718	0.690323	1.44595
0.246178	3.3402	0.0688811	2.27015	0.226725	4.4206	0.343641	4.37286	0.431664	4.42383	0.613378	2.45771	0.307938	5.49053	0.483507	2.75757	0.691694	1.4969
0.2492	3.15043	0.070996	2.26963	0.230752	4.22174	0.347802	4.55506	0.435815	4.48642	0.615688	2.4999	0.313051	5.4858	0.486095	2.79749	0.693112	1.54849
0.252049	2.96929	0.0731103	2.26904	0.234592	4.01929	0.352129	4.72743	0.440024	4.54722	0.618036	2.54145	0.317503	5.47943	0.48872	2.83697	0.694579	1.60069
0.254733	2.79817	0.0752241	2.26834	0.238242	3.81568	0.356611	4.88869	0.444288	4.6062	0.620423	2.58241	0.321293	5.47232	0.491382	2.87617	0.696095	1.65337
0.257263	2.63802	0.0773371	2.26752	0.241702	3.61331	0.361238	5.03806	0.448607	4.66352	0.622848	2.62282	0.324424	5.4653	0.49408	2.91516	0.69766	1.70659
0.259649	2.48939	0.0794494	2.2667	0.244975	3.41471	0.365999	5.17523	0.452978	4.7192	0.625311	2.66262	0.326895	5.45894	0.496814	2.95402	0.699275	1.7603
0.261902	2.35254	0.0815609	2.26582	0.248065	3.2221	0.370882	5.30016	0.457401	4.77327	0.62781	2.70185	0.328711	5.45394	0.499584	2.99286	0.70094	1.81448
0.264033	2.22729	0.0836715	2.2649	0.250979	3.03747	0.375875	5.41306	0.461873	4.82591	0.630345	2.74055	0.329872	5.45046	0.502391	3.03179	0.702656	1.86906
0.266052	2.11333	0.0857813	2.26393	0.253725	2.86242	0.380968	5.51434	0.466393	4.87706	0.632916	2.7787	0.33154	5.44523	0.505234	3.07097	0.704423	1.92403
0.26797	2.01014	0.0878901	2.26297	0.256313	2.69796	0.38615	5.60462	0.470961	4.92684	0.635523	2.81632	0.333351	5.4392	0.508113	3.11045	0.706242	1.97941
0.269798	1.91699	0.0899981	2.26201	0.258752	2.54487	0.391412	5.68448	0.475574	4.97535	0.638164	2.85348	0.33581	5.43028	0.51103	3.15036	0.708112	2.03502
0.271543	1.83329	0.0921051	2.26102	0.261055	2.4035	0.396743	5.75463	0.480232	5.02257	0.64084	2.89015	0.338915	5.41821	0.513983	3.19086	0.710034	2.09093
0.273214	1.75827	0.0942112	2.26005	0.263231	2.27386	0.402135	5.81582	0.484933	5.0686	0.64355	2.92635	0.34266	5.40207	0.516975	3.23202	0.712008	2.1471
0.274819	1.69112	0.0963164	2.25908	0.265292	2.15564	0.40758	5.86863	0.489676	5.11348	0.646293	2.96214	0.347038	5.38122	0.520006	3.2739	0.714034	2.2034
0.276365	1.63124	0.0984208	2.25816	0.267248	2.04838	0.413071	5.91388	0.494461	5.15732	0.649069	2.99754	0.352039	5.3546	0.523076	3.31666	0.716114	2.25982
0.277859	1.57791	0.100524	2.25726	0.269109	1.9515	0.417887	5.94763	0.499286	5.20018	0.651879	3.03259	0.357015	5.32514	0.526186	3.36041	0.718245	2.31633
0.279305	1.53043	0.102627	2.25634	0.270884	1.86427	0.422012	5.97245	0.504151	5.24204	0.65472	3.06723	0.361962	5.29276	0.529338	3.40522	0.72043	2.3729
0.28071	1.48835	0.104729	2.25544	0.272583	1.78598	0.425436	5.99026	0.509054	5.28297	0.657594	3.10152	0.366878	5.25745	0.532531	3.45112	0.722667	2.42941
0.282079	1.45107	0.10683	2.25458	0.274212	1.71593	0.42815	6.00287	0.513995	5.32309	0.6605	3.13559	0.371759	5.21914	0.535768	3.49816	0.724957	2.48582
0.283414	1.41805	0.10893	2.25375	0.27578	1.65336	0.430149	6.01118	0.518973	5.36237	0.663437	3.16939	0.376603	5.17784	0.53905	3.54647	0.727299	2.5421
0.284721	1.38897	0.111029	2.25293	0.277293	1.59758	0.431429	6.01604	0.523988	5.40089	0.666406	3.20292	0.381407	5.13356	0.542377	3.59598	0.729694	2.5982
0.286002	1.36335	0.113128	2.25212	0.278757	1.54793	0.433272	6.02262	0.529037	5.43866	0.669405	3.23629	0.386169	5.0863	0.545751	3.64675	0.732141	2.65406
0.287261	1.34089	0.115226	2.25135	0.280177	1.50385	0.435277	6.02908	0.534122	5.47576	0.672436	3.26948	0.390885	5.03597	0.549172	3.69878	0.734639	2.7096
0.288501	1.32124	0.117323	2.25064	0.281559	1.46478	0.438008	6.0368	0.539241	5.51223	0.675498	3.30255	0.395553	4.98268	0.552643	3.75193	0.73719	2.76473
0.289723	1.30412	0.11942	2.24991	0.282907	1.43019	0.441465	6.04489	0.544393	5.54804	0.67859	3.33558	0.40017	4.92649	0.556164	3.80623	0.739791	2.81948
0.290931	1.2893	0.121516	2.24918	0.284224	1.39968	0.445652	6.05225	0.549579	5.58325	0.681713	3.36854	0.404733	4.86733	0.559735	3.86159	0.742443	2.87375
0.292126	1.2765	0.123611	2.24853	0.285515	1.37278	0.450569	6.0577	0.554797	5.61787	0.684867	3.40142	0.409239	4.80538	0.563359	3.91787	0.745146	2.9275
0.29331	1.26563	0.125705	2.24787	0.286782	1.34914	0.456215	6.06018	0.560047	5.65194	0.688051	3.43445	0.413687	4.74068	0.567036	3.97493	0.747898	2.98066
0.294484	1.2564	0.127799	2.24725	0.288029	1.32847	0.461861	6.05875	0.565329	5.68544	0.691267	3.46754	0.418073	4.67332	0.570766	4.03257	0.7507	3.03315
0.295651	1.24865	0.129893	2.24664	0.289258	1.3104	0.467505	6.05353	0.570641	5.71838	0.694513	3.50069	0.422395	4.60342	0.57455	4.09073	0.75355	3.08495
0.296811	1.2423	0.131986	2.24605	0.290471	1.2947	0.473141	6.0448	0.575984	5.75079	0.69779	3.53404	0.426651	4.53119	0.578389	4.14918	0.756449	3.13604
0.297966	1.23722	0.134078	2.24549	0.29167	1.28118	0.478768	6.03275	0.581357	5.78264	0.701098	3.56762	0.430839	4.45673	0.582282	4.20764	0.759394	3.18637
0.299116	1.2332	0.13617	2.24492	0.292858	1.26958	0.484383	6.01749	0.58676	5.81392	0.704438	3.60146	0.434956	4.38025	0.586229	4.26597	0.762386	3.23582
0.300264	1.23023	0.138261	2.24442	0.294036	1.25972	0.489981	5.99924	0.592191	5.8446	0.707809	3.6356	0.439001	4.30201	0.590231	4.32396	0.765424	3.28441
0.301409	1.22816	0.140352	2.24391	0.295205	1.25145	0.495562	5.97811	0.597651	5.87468	0.711212	3.67011	0.442972	4.22218	0.594286	4.38134	0.768506	3.33215
0.302552	1.22695	0.142443	2.2434	0.296368	1.24461	0.501121	5.95421	0.603138	5.9041	0.714648	3.705	0.446868	4.14102	0.598395	4.43787	0.771633	3.37892
0.303695	1.2265	0.144533	2.24292	0.297525	1.23903	0.506657	5.92768	0.608652	5.9329	0.718116	3.74035	0.450689	4.05877	0.602556	4.49337	0.774802	3.42471
0.304838	1.22671	0.146622	2.24247	0.298677	1.23459	0.512166	5.8986	0.614193	5.96098	0.721617	3.77619	0.454431	3.97575	0.606768	4.54767	0.778014	3.46949
0.305981	1.22757	0.148711	2.24202	0.299825	1.23124	0.517648	5.86714	0.61976	5.98829	0.725152	3.81257	0.458097	3.8922	0.61103	4.60047	0.781267	3.51326
0.307125	1.229	0.1508	2.24161	0.300971	1.22886	0.523099	5.83332	0.625352	6.01479	0.728722	3.84959	0.461684	3.80838	0.61534	4.65165	0.784561	3.55599
0.308271	1.23097	0.152888	2.24122	0.302115	1.22731	0.528518	5.79729	0.630968	6.04045	0.732326	3.88722	0.465193	3.72461	0.619135	4.69491	0.787894	3.59765
0.309419	1.23338	0.154976	2.24077	0.303258	1.22657	0.533902	5.75914	0.636607	6.0652	0.735965	3.9255	0.468625	3.64109	0.622397	4.73056	0.791265	3.63826
0.310569	1.23622	0.157064	2.2404	0.3044	1.22657	0.539249	5.7189	0.64227	6.08899	0.739641	3.96457	0.471978	3.5581	0.625113	4.75926	0.794673	3.67775
0.311723	1.23948	0.159151	2.24003	0.305543	1.22719	0.544558	5.67673	0.647954	6.11174	0.743353	4.00439	0.475255	3.47591	0.627271	4.7813	0.798118	3.71614
0.312879	1.24307	0.161238	2.23967	0.306687	1.22841	0.549827	5.63264	0.653658	6.13337	0.747102	4.045	0.478455	3.39476	0.628865	4.79732	0.801598	3.75344
0.31389	1.24643	0.163324	2.23934	0.307832	1.23016	0.555054	5.58676	0.659382	6.15384	0.75089	4.08652	0.48158	3.31481	0.629888	4.80739	0.805112	3.78967
0.314753	1.24949	0.16541	2.23899	0.308979	1.23239	0.560238	5.53921	0.665125	6.1731	0.754717	4.12891	0.484632	3.23628	0.631362	4.82143	0.808659	3.82485
0.315469	1.25213	0.167496	2.2387	0.310129	1.23508	0.565376	5.48999	0.670144	6.18888	0.758584	4.17223	0.487611	3.15936	0.632968	4.83659	0.812239	3.85888
0.316036	1.2543	0.169582	2.23838	0.311281	1.23818	0.570468	5.43923	0.674432	6.20151	0.762492	4.21653	0.490519	3.08414	0.635162	4.8567	0.81585	3.89185
0.316454	1.25603	0.171667	2.23803	0.312436	1.24164	0.575511	5.38704	0.677984	6.21135	0.766441	4.26186	0.493358	3.01078	0.637949	4.88123	0.819491	3.9238
0.316721	1.25709	0.173752	2.23775	0.313595	1.24545	0.580506	5.33344	0.680796	6.21868	0.770433	4.30819	0.496129	2.93939	0.641337	4.90984	0.823162	3.95468
0.317106	1.25856	0.175837	2.2375	0.314757	1.24956	0.58545	5.27859	0.682867	6.22397	0.774469	4.35561	0.498835	2.87004	0.645337	4.94162	0.82686	3.98458
0.317526	1.26025	0.177922	2.23723	0.315923	1.25392	0.590342	5.22253	0.684192	6.2272	0.778549	4.40414	0.501477	2.80284	0.649957	4.97577	0.830586	4.01347
0.318096	1.26266	0.180006	2.23695	0.317093	1.25855	0.595181	5.16535	0.686099	6.23164	0.782675	4.45375	0.504058	2.73775	0.654608	5.00745	0.834339	4.04145
0.31882	1.26576	0.18209	2.23669	0.318268	1.26339	0.599967	5.10713	0.688174	6.23637	0.786848	4.50449	0.506579	2.67485	0.659288	5.03659	0.838117	4.06846
0.319697	1.26955	0.184174	2.23642	0.319448	1.26845	0.604698	5.04796	0.690997	6.24235	0.791069	4.55638	0.509042	2.61417	0.663994	5.06321	0.84192	4.09459
0.32073	1.27415	0.186257	2.23618	0.320632	1.27369	0.609373	4.98797	0.694572	6.24935	0.795339	4.60947	0.51145	2.55571	0.668723	5.08728	0.845747	4.11989
0.321919	1.27955	0.188341	2.23598	0.321821	1.27913	0.613992	4.92718	0.6989	6.25706	0.799658	4.66373	0.513804	2.49941	0.673473	5.1088	0.849597	4.14435
0.323114	1.28515	0.190424	2.23574	0.323015	1.28471	0.618554	4.8657	0.703984	6.26484	0.804029	4.71914	0.516107	2.44526	0.678242	5.12777	0.85347	4.16807
0.324314	1.29087	0.192507	2.2355	0.324215	1.29039	0.623059	4.80364	0.709824	6.27212	0.808452	4.77577	0.518361	2.39325	0.683028	5.14424	0.857364	4.19104
0.32552	1.2967	0.194589	2.23531	0.32542	1.29619	0.627505	4.74112	0.715671	6.27759	0.812928	4.8335	0.520567	2.34337	0.687828	5.15827	0.861279	4.21333
0.32673	1.30262	0.196672	2.23511	0.32663	1.3021	0.631894	4.67811	0.721522	6.28116	0.817459	4.89235	0.522727	2.29554	0.69264	5.1699	0.865215	4.23498
0.327947	1.30865	0.198754	2.2349	0.327846	1.30817	0.636223	4.61478	0.727375	6.28273	0.822044	4.95234	0.524844	2.24965	0.697462	5.17911	0.86917	4.25602
0.329169	1.31478	0.200836	2.23468	0.329068	1.31428	0.640493	4.55126	0.733229	6.28224	0.826687	5.01337	0.526919	2.20572	0.702291	5.18592	0.873145	4.2765
0.330397	1.32096	0.202918	2.2345	0.330295	1.32044	0.644703	4.48752	0.739082	6.27972	0.831386	5.07542	0.528955	2.16373	0.707125	5.1905	0.877139	4.29649
0.33163	1.3272	0.205	2.2343	0.331528	1.32668	0.648855	4.42372	0.744931	6.27498	0.835529	5.13021	0.530951	2.12354	0.711963	5.19282	0.881152	4.31606
0.33287	1.33351	0.207082	2.23413	0.332767	1.33298	0.652946	4.35993	0.750774	6.26807	0.839096	5.17746	0.532912	2.0851	0.716801	5.19292	0.885182	4.33519
0.334115	1.33988	0.209163	2.23397	0.334012	1.33935	0.656979	4.29624	0.756611	6.25901	0.842071	5.21684	0.534837	2.04837	0.721639	5.19085	0.88923	4.35397
0.335367	1.34625	0.211245	2.23381	0.335263	1.34573	0.660952	4.23272	0.762437	6.24767	0.844438	5.24811	0.536728	2.01327	0.726474	5.18662	0.893295	4.37242
0.336624	1.35266	0.213326	2.23363	0.33652	1.35217	0.664866	4.16943	0.768252	6.23409	0.846189	5.27135	0.538588	1.97976	0.731304	5.18041	0.897377	4.39057
0.337887	1.35916	0.215407	2.23346	0.337783	1.35862	0.668721	4.10651	0.774054	6.21829	0.847313	5.28625	0.540418	1.9478	0.736127	5.17214	0.901476	4.40849
0.339157	1.36564	0.217488	2.23334	0.339051	1.36506	0.672518	4.04396	0.77984	6.20028	0.848934	5.30755	0.542218	1.91729	0.740942	5.16189	0.905592	4.42623
0.340432	1.3721	0.219568	2.23317	0.340326	1.37158	0.676257	3.98189	0.785607	6.18015	0.850704	5.33087	0.54399	1.88819	0.745746	5.14977	0.909724	4.44377
0.341713	1.37862	0.221649	2.23301	0.341607	1.3781	0.679938	3.92038	0.791356	6.15788	0.853124	5.36277	0.545736	1.86041	0.750538	5.13573	0.913338	4.45892
0.343001	1.38511	0.223729	2.23286	0.342894	1.38458	0.683562	3.85942	0.797082	6.1336	0.856205	5.40317	0.547457	1.83393	0.755316	5.11984	0.916429	4.4718
0.344294	1.39161	0.22581	2.23271	0.344187	1.39108	0.68713	3.79912	0.802785	6.10748	0.859961	5.45217	0.549153	1.80868	0.760078	5.1022	0.918991	4.48245
0.345594	1.39812	0.22789	2.23256	0.345486	1.39756	0.690641	3.73957	0.808463	6.07958	0.864411	5.50972	0.550827	1.78463	0.764823	5.08286	0.921021	4.49082
0.3469	1.4046	0.22997	2.23245	0.346791	1.40405	0.694098	3.68075	0.814114	6.05003	0.869575	5.57577	0.552479	1.76172	0.769549	5.06181	0.922517	4.49688
0.348211	1.4111	0.23205	2.23232	0.348103	1.41056	0.6975	3.62271	0.819736	6.01907	0.874801	5.64157	0.55411	1.73987	0.774255	5.03912	0.923475	4.50078
0.349529	1.41757	0.234129	2.23219	0.34942	1.41703	0.700848	3.56556	0.825329	5.98682	0.880088	5.70692	0.555721	1.71909	0.778939	5.01489	0.924854	4.50642
0.350853	1.42403	0.236209	2.23208	0.350743	1.42349	0.704144	3.50934	0.830892	5.95348	0.885435	5.77164	0.557313	1.69929	0.7836	4.98907	0.926354	4.51258
0.352182	1.43044	0.238289	2.23195	0.352072	1.42991	0.707388	3.45398	0.836423	5.91931	0.890843	5.83549	0.558887	1.68042	0.788236	4.96181	0.928398	4.52089
0.353518	1.43684	0.240368	2.23182	0.353408	1.43634	0.71058	3.39957	0.841922	5.88438	0.896309	5.89825	0.560445	1.66249	0.792846	4.93313	0.930988	4.53135
0.35486	1.44325	0.242447	2.23171	0.354749	1.44271	0.713722	3.34614	0.847388	5.84902	0.901833	5.9597	0.561985	1.64543	0.797428	4.90304	0.934129	4.54405
