Sym0		Asym0		Sym1		Sym2		Sym3		Sym4		Asym1		Asym2		Asym3		Asym4	
499  Points		502  Points		387  Points		240  Points		191  Points		166  Points		453  Points		303  Points		209  Points		160  Points	
Freq (MHz)	Vgr (m/ms)	Freq (MHz)	Vgr (m/ms)	Freq (MHz)	Vgr (m/ms)	Freq (MHz)	Vgr (m/ms)	Freq (MHz)	Vgr (m/ms)	Freq (MHz)	Vgr (m/ms)	Freq (MHz)	Vgr (m/ms)	Freq (MHz)	Vgr (m/ms)	Freq (MHz)	Vgr (m/ms)	Freq (MHz)	Vgr (m/ms)
0.00145028	4.86252	0.000136268	0.260709	0.279508	-0.0144567	0.32884	0.16218	0.559023	0.030265	0.838526	0.00858499	0.139755	0.101959	0.419263	0.0172825	0.657581	0.0155798	0.698778	0.0373142
0.00598067	4.86198	0.000379169	0.32499	0.279495	-0.0243593	0.328991	0.216167	0.559051	0.042958	0.838534	0.0152808	0.13985	0.189192	0.419279	0.0312284	0.657595	0.0249739	0.698813	0.0531032
0.0105101	4.86052	0.000741851	0.452207	0.279463	-0.0437398	0.329242	0.323565	0.559103	0.068366	0.838554	0.0287764	0.140107	0.362928	0.419321	0.0591501	0.657627	0.0437812	0.698877	0.084723
0.0150377	4.85825	0.00122181	0.576417	0.279413	-0.0619198	0.329594	0.429449	0.559178	0.0937668	0.838587	0.0422911	0.140526	0.534691	0.419389	0.0870149	0.657677	0.0625724	0.698971	0.116322
0.0195629	4.85516	0.00181594	0.696883	0.279347	-0.0784311	0.330043	0.533405	0.559277	0.119154	0.838633	0.0557707	0.141104	0.703534	0.419483	0.114839	0.657744	0.0813318	0.699094	0.14788
0.0240848	4.85127	0.00252037	0.813009	0.279267	-0.0928502	0.330588	0.635041	0.5594	0.144585	0.838691	0.0692533	0.141837	0.868661	0.419603	0.142656	0.657829	0.100174	0.699246	0.179427
0.0286027	4.84649	0.0033309	0.924266	0.279174	-0.104769	0.331226	0.734018	0.559547	0.16996	0.838762	0.082742	0.142722	1.02943	0.419749	0.170457	0.657931	0.119034	0.699428	0.210882
0.0331157	4.84088	0.00424264	1.03025	0.279072	-0.11396	0.331955	0.830164	0.559717	0.195296	0.838845	0.0962427	0.143755	1.18516	0.419921	0.198228	0.65805	0.137932	0.699639	0.242298
0.0376231	4.83441	0.00525066	1.13075	0.278962	-0.120108	0.332773	0.92336	0.559911	0.220624	0.838941	0.109768	0.144931	1.3354	0.420118	0.225938	0.658188	0.156904	0.69988	0.273708
0.0421241	4.82698	0.00634967	1.22554	0.278848	-0.123031	0.333676	1.01344	0.560128	0.245939	0.83905	0.123268	0.146244	1.47981	0.420342	0.253598	0.658343	0.17588	0.700149	0.305035
0.0466177	4.81864	0.00753432	1.31456	0.278733	-0.122723	0.334661	1.10036	0.560369	0.271228	0.839171	0.136718	0.147688	1.61804	0.420591	0.281233	0.658516	0.194933	0.700448	0.336267
0.0511031	4.80934	0.00879921	1.39783	0.278619	-0.119105	0.335726	1.18418	0.560633	0.296464	0.839305	0.150215	0.149259	1.74999	0.420866	0.308817	0.658706	0.214071	0.700776	0.367457
0.0555793	4.79904	0.010139	1.47538	0.278511	-0.11209	0.336868	1.26489	0.560921	0.321667	0.839451	0.163732	0.150949	1.87553	0.421166	0.3363	0.658914	0.233231	0.701133	0.398562
0.0600455	4.78765	0.0115484	1.54743	0.27841	-0.10172	0.338083	1.3426	0.561233	0.346804	0.83961	0.177218	0.152753	1.99479	0.421493	0.363726	0.659141	0.252434	0.701519	0.429571
0.0645006	4.77521	0.0130225	1.61417	0.278321	-0.0880848	0.33937	1.41744	0.561568	0.371956	0.839781	0.190712	0.154666	2.10776	0.421844	0.391114	0.659385	0.271724	0.701933	0.460535
0.0689436	4.76167	0.0145563	1.67573	0.278246	-0.0712152	0.340725	1.48949	0.561926	0.397064	0.839965	0.204223	0.156681	2.21455	0.422221	0.418423	0.659647	0.291115	0.702377	0.491409
0.0733734	4.7469	0.016145	1.73242	0.278188	-0.0511722	0.342145	1.55881	0.562307	0.422087	0.840162	0.217697	0.158793	2.3154	0.422624	0.445649	0.659927	0.31056	0.702849	0.522174
0.0777889	4.73083	0.0177844	1.78451	0.278151	-0.0280786	0.343629	1.62567	0.562712	0.447082	0.840371	0.231167	0.160996	2.41045	0.423052	0.472781	0.660226	0.330041	0.70335	0.552797
0.0821888	4.7135	0.0194703	1.83228	0.278136	-0.00203288	0.345175	1.69017	0.563141	0.472025	0.840592	0.244631	0.163284	2.50001	0.423505	0.499872	0.660542	0.349666	0.703879	0.583354
0.086572	4.6948	0.0211987	1.87603	0.278147	0.0269873	0.346779	1.75238	0.563592	0.496934	0.840827	0.258155	0.165654	2.58427	0.423983	0.526881	0.660877	0.369362	0.704437	0.613852
0.0909371	4.6746	0.022966	1.91594	0.278186	0.05888	0.34844	1.81249	0.564067	0.521778	0.841073	0.271654	0.1681	2.66343	0.424487	0.553799	0.661231	0.389052	0.705023	0.644233
0.0952826	4.65289	0.0247688	1.95231	0.278257	0.0935153	0.350156	1.8706	0.564564	0.546562	0.841333	0.285102	0.170617	2.73782	0.425015	0.58061	0.661602	0.408876	0.705637	0.674454
0.0996072	4.62953	0.0266039	1.98551	0.278361	0.130925	0.351926	1.92683	0.565085	0.571301	0.841605	0.298594	0.173201	2.80764	0.425569	0.607352	0.661992	0.428823	0.70628	0.704573
0.103909	4.60443	0.0284686	2.01566	0.278501	0.171029	0.353747	1.9813	0.565629	0.595951	0.841889	0.312102	0.175849	2.87316	0.426147	0.634029	0.662401	0.448793	0.70695	0.734636
0.108187	4.57752	0.0303599	2.04299	0.278679	0.213808	0.355617	2.03413	0.566196	0.620567	0.842186	0.325568	0.178555	2.93462	0.42675	0.660577	0.662829	0.468812	0.707648	0.764586
0.112439	4.54866	0.0322755	2.06785	0.278899	0.259305	0.357537	2.08544	0.566785	0.645118	0.842496	0.339024	0.181317	2.99221	0.427378	0.687085	0.663275	0.488928	0.708375	0.794382
0.116663	4.51776	0.0342131	2.09031	0.279163	0.30745	0.359503	2.13525	0.567398	0.66961	0.842818	0.352531	0.184131	3.04615	0.42803	0.713515	0.66374	0.509166	0.709129	0.824092
0.120857	4.48474	0.0361705	2.11063	0.279472	0.358332	0.361516	2.18369	0.568033	0.694058	0.843153	0.365997	0.186993	3.09669	0.428707	0.739861	0.664224	0.529426	0.70991	0.853703
0.12502	4.44939	0.038146	2.12901	0.27983	0.411975	0.363573	2.23082	0.568691	0.718417	0.8435	0.379453	0.189525	3.13815	0.429409	0.766113	0.664726	0.549731	0.71072	0.883189
0.129148	4.41166	0.0401377	2.14555	0.28024	0.468356	0.365673	2.27675	0.569372	0.742746	0.84386	0.39296	0.191709	3.17161	0.430135	0.792322	0.665248	0.570126	0.711556	0.91257
0.13324	4.37134	0.042144	2.16046	0.280703	0.52758	0.367815	2.3215	0.570075	0.767014	0.844232	0.406425	0.193532	3.19795	0.430885	0.818446	0.665789	0.590556	0.71242	0.941816
0.137294	4.32835	0.0441635	2.17388	0.281223	0.589705	0.369998	2.36517	0.570801	0.791161	0.844617	0.419879	0.194983	3.21813	0.43166	0.844474	0.666348	0.611054	0.713311	0.971011
0.141306	4.28257	0.0461948	2.18592	0.281802	0.654775	0.372222	2.40783	0.571549	0.815285	0.845015	0.433383	0.196057	3.23256	0.432459	0.870456	0.666927	0.631614	0.714229	1.0001
0.145274	4.2338	0.0482367	2.19675	0.282443	0.722878	0.374485	2.44948	0.57232	0.839364	0.845425	0.446841	0.196746	3.24149	0.433282	0.896418	0.667525	0.652228	0.715175	1.02907
0.149195	4.18202	0.0500239	2.20528	0.283149	0.794118	0.376787	2.49017	0.573113	0.86335	0.845847	0.46028	0.19774	3.25416	0.434129	0.922341	0.668143	0.672875	0.716147	1.05791
0.153067	4.12703	0.0515526	2.21186	0.283923	0.868484	0.379125	2.52995	0.573929	0.8873	0.846282	0.473755	0.198825	3.26754	0.435001	0.948187	0.668779	0.693513	0.717146	1.08668
0.156885	4.06877	0.05282	2.21692	0.284767	0.946024	0.381501	2.56893	0.574767	0.911176	0.84673	0.487229	0.200308	3.28516	0.435896	0.974025	0.669435	0.71421	0.718172	1.11535
0.160648	4.00716	0.0538241	2.22071	0.285685	1.02684	0.383912	2.60705	0.575627	0.934977	0.84719	0.500701	0.202195	3.30672	0.436816	0.999845	0.67011	0.734948	0.719224	1.14391
0.164352	3.94211	0.0545635	2.22332	0.286681	1.1109	0.386359	2.6444	0.576509	0.958777	0.847663	0.514167	0.204492	3.33147	0.437759	1.02563	0.670804	0.755697	0.720303	1.17239
0.167994	3.8736	0.0550372	2.2249	0.287756	1.19824	0.38884	2.68101	0.577413	0.982498	0.848148	0.527624	0.207208	3.35887	0.438727	1.05142	0.671518	0.776468	0.721409	1.2008
0.17157	3.80169	0.0557186	2.22712	0.288913	1.28875	0.391355	2.71686	0.57834	1.00614	0.848646	0.54106	0.210352	3.38816	0.439719	1.07722	0.672251	0.797209	0.722541	1.22911
0.175078	3.72643	0.0564601	2.22952	0.290157	1.38234	0.393902	2.75203	0.579288	1.02976	0.849157	0.554528	0.213522	3.41533	0.440734	1.10304	0.673004	0.817964	0.723699	1.25731
0.178514	3.64784	0.0574697	2.23254	0.291313	1.46633	0.396483	2.78655	0.580258	1.05335	0.84968	0.567989	0.216716	3.44045	0.441774	1.1289	0.673775	0.838746	0.724884	1.28545
0.181875	3.56616	0.0587485	2.2361	0.292353	1.53959	0.399095	2.82044	0.581251	1.07687	0.850215	0.581434	0.219933	3.46349	0.442838	1.15476	0.674567	0.859508	0.726095	1.31353
0.185159	3.48162	0.0602976	2.24009	0.293252	1.60131	0.401738	2.85365	0.582265	1.10032	0.850763	0.594921	0.22317	3.48464	0.443926	1.1807	0.675377	0.880232	0.727331	1.34149
0.188363	3.39442	0.0621182	2.24427	0.293987	1.65081	0.404412	2.88629	0.583301	1.12378	0.851324	0.608344	0.226426	3.50396	0.445038	1.20673	0.676207	0.900953	0.728594	1.36936
0.191484	3.30498	0.0642113	2.24853	0.294543	1.68744	0.407117	2.91833	0.584359	1.1472	0.851897	0.621788	0.229699	3.52146	0.446174	1.23279	0.677056	0.921667	0.729883	1.39719
0.194521	3.21361	0.066308	2.25227	0.294905	1.71116	0.40985	2.94982	0.585439	1.17061	0.852482	0.635272	0.232988	3.53728	0.447335	1.25898	0.677924	0.942295	0.731198	1.42495
0.197473	3.12083	0.0684081	2.25557	0.295434	1.7456	0.412613	2.98078	0.58654	1.19398	0.85308	0.64869	0.23629	3.55142	0.44852	1.28528	0.678812	0.962895	0.732538	1.45264
0.200337	3.02719	0.070511	2.25835	0.296021	1.78304	0.415405	3.01122	0.587664	1.21729	0.853691	0.662123	0.239605	3.56394	0.44973	1.31167	0.679718	0.983443	0.733905	1.48025
0.203113	2.93313	0.0726163	2.26077	0.296839	1.83442	0.418224	3.04111	0.588809	1.24061	0.854314	0.675587	0.242931	3.57493	0.450964	1.33821	0.680644	1.00396	0.735297	1.5078
0.205802	2.83922	0.0747237	2.26282	0.297908	1.90011	0.421071	3.0705	0.589975	1.26395	0.85495	0.689036	0.246267	3.58437	0.452224	1.36494	0.681589	1.0244	0.736714	1.53528
0.208404	2.74601	0.0768328	2.26454	0.299251	1.98012	0.423946	3.09946	0.591164	1.28729	0.855598	0.70246	0.249611	3.59232	0.453508	1.39181	0.682553	1.04479	0.738157	1.5627
0.210919	2.65416	0.0789435	2.26599	0.300896	2.07473	0.426847	3.12788	0.592374	1.31059	0.856259	0.715902	0.252961	3.59882	0.454817	1.41889	0.683536	1.06512	0.739626	1.59007
0.21335	2.56414	0.0810552	2.26712	0.30288	2.18388	0.429774	3.15584	0.593606	1.3339	0.856932	0.729385	0.256317	3.60397	0.456152	1.44616	0.684538	1.08535	0.74112	1.61736
0.215697	2.47638	0.083168	2.26805	0.304966	2.29313	0.432728	3.18343	0.59486	1.35724	0.857618	0.7428	0.259676	3.60772	0.457512	1.47361	0.685559	1.10552	0.74264	1.6446
0.217964	2.39138	0.0852815	2.26873	0.307153	2.40195	0.435706	3.21057	0.596135	1.38062	0.858316	0.756227	0.263039	3.61007	0.458898	1.50133	0.686598	1.12558	0.744185	1.67178
0.220153	2.30957	0.0873955	2.26925	0.309442	2.50976	0.43871	3.23722	0.597432	1.40401	0.859027	0.769678	0.266403	3.61118	0.460309	1.52932	0.687656	1.14555	0.745755	1.69887
0.222268	2.23121	0.08951	2.26959	0.31183	2.61592	0.441738	3.26349	0.598751	1.42743	0.85975	0.783102	0.269768	3.61092	0.461747	1.55753	0.688733	1.16543	0.747351	1.72597
0.224311	2.15658	0.0916247	2.26976	0.314316	2.71998	0.444791	3.28937	0.600092	1.45092	0.860486	0.796549	0.273132	3.60937	0.463212	1.58604	0.689828	1.1852	0.748971	1.75299
0.226286	2.08592	0.0937395	2.26981	0.316898	2.82134	0.447868	3.31485	0.601455	1.47445	0.861235	0.809965	0.276494	3.60657	0.464703	1.61486	0.690941	1.20488	0.750617	1.77994
0.228198	2.01922	0.0958542	2.26972	0.319573	2.91944	0.450968	3.33995	0.60284	1.49807	0.861996	0.823393	0.279852	3.6025	0.466221	1.64394	0.692073	1.22447	0.752288	1.80681
0.230049	1.95666	0.0979688	2.26953	0.322338	3.01401	0.454091	3.36465	0.604247	1.52172	0.862769	0.836846	0.283207	3.59725	0.467766	1.67333	0.693223	1.24394	0.753984	1.83366
0.231844	1.89825	0.100083	2.26925	0.32519	3.10465	0.457238	3.38902	0.605675	1.54546	0.863555	0.850277	0.286556	3.59074	0.469339	1.70309	0.694391	1.26325	0.755705	1.86048
0.233586	1.84384	0.102197	2.26886	0.328124	3.19099	0.460407	3.413	0.607126	1.56933	0.864353	0.863734	0.289898	3.58301	0.47094	1.73317	0.695577	1.28247	0.757451	1.88718
0.23528	1.79347	0.104311	2.2684	0.331136	3.27283	0.463186	3.43356	0.6086	1.59328	0.865164	0.877172	0.293232	3.5741	0.472568	1.76359	0.69678	1.30158	0.759221	1.91383
0.236928	1.747	0.106424	2.26788	0.334222	3.35001	0.465568	3.45092	0.610095	1.61731	0.865988	0.890572	0.296558	3.56404	0.474226	1.7944	0.698002	1.32052	0.761017	1.94048
0.238535	1.70422	0.108537	2.26729	0.337378	3.42247	0.467548	3.46517	0.611613	1.64148	0.866824	0.903968	0.299873	3.55278	0.475694	1.82145	0.699241	1.33937	0.762837	1.96705
0.240104	1.66497	0.110649	2.26667	0.340599	3.49016	0.469118	3.4763	0.613154	1.6658	0.867672	0.917431	0.303178	3.54034	0.476962	1.84475	0.700498	1.3581	0.764682	1.99352
0.241442	1.63349	0.112761	2.26599	0.343882	3.55304	0.470276	3.48453	0.614717	1.69027	0.868533	0.930879	0.30647	3.5268	0.478024	1.86424	0.701772	1.37667	0.766552	2.01994
0.242564	1.60866	0.114872	2.26529	0.34722	3.61122	0.471019	3.48974	0.616304	1.71489	0.869407	0.944298	0.30975	3.51212	0.478871	1.87964	0.703063	1.39512	0.768446	2.04628
0.243479	1.58942	0.116982	2.26453	0.350611	3.66473	0.472088	3.49707	0.617913	1.73967	0.870293	0.957734	0.313015	3.49632	0.479498	1.89107	0.704371	1.41342	0.770365	2.0726
0.244195	1.57493	0.119091	2.26375	0.354049	3.71372	0.473253	3.50503	0.619545	1.76463	0.871192	0.97113	0.316265	3.47941	0.479902	1.89843	0.705697	1.43156	0.772308	2.09886
0.244717	1.56478	0.1212	2.26296	0.357531	3.75839	0.474842	3.51586	0.621201	1.78979	0.872103	0.984591	0.319498	3.46143	0.480484	1.90897	0.707039	1.44961	0.774276	2.12502
0.24505	1.55849	0.123308	2.26216	0.361052	3.79882	0.476858	3.52951	0.62288	1.8152	0.873026	0.998037	0.322715	3.44237	0.481122	1.92051	0.708398	1.46754	0.776268	2.15111
0.245525	1.54977	0.125415	2.26132	0.36461	3.83518	0.479307	3.54576	0.624583	1.84082	0.873962	1.01145	0.325913	3.42226	0.481994	1.93633	0.709774	1.4853	0.778284	2.17715
0.24604	1.54064	0.127522	2.2605	0.368199	3.86772	0.482193	3.56456	0.62631	1.86665	0.874911	1.02488	0.329092	3.40111	0.483108	1.95644	0.711166	1.50289	0.780325	2.20309
0.246734	1.52868	0.129627	2.25964	0.371817	3.89655	0.485524	3.5859	0.628062	1.89276	0.875872	1.03833	0.33225	3.37896	0.484471	1.98085	0.712574	1.52035	0.78239	2.22896
0.247605	1.51449	0.131732	2.25878	0.37546	3.92188	0.488875	3.6069	0.629837	1.91912	0.876846	1.05175	0.335388	3.35584	0.486091	2.00975	0.713999	1.53768	0.784478	2.25477
0.248647	1.49856	0.133836	2.25791	0.379125	3.94388	0.492245	3.62751	0.631638	1.94576	0.877832	1.06519	0.338504	3.33175	0.487979	2.04328	0.715439	1.55492	0.786591	2.28046
0.249857	1.48151	0.13594	2.25703	0.382809	3.96272	0.495634	3.64781	0.633463	1.97275	0.878831	1.07866	0.341596	3.30671	0.489898	2.07703	0.716896	1.57202	0.788728	2.30606
0.251228	1.46395	0.138042	2.25619	0.386509	3.97858	0.499043	3.66777	0.635314	2	0.879842	1.09206	0.344665	3.28078	0.491849	2.11112	0.718369	1.58895	0.790888	2.33155
0.252584	1.44836	0.140144	2.25537	0.390222	3.99157	0.502469	3.68735	0.63719	2.02761	0.880866	1.10552	0.34771	3.25401	0.493832	2.14549	0.719857	1.60575	0.793072	2.35697
0.253927	1.43467	0.142245	2.25452	0.393947	4.00191	0.505913	3.70659	0.639092	2.05559	0.881902	1.11898	0.350729	3.22642	0.495847	2.18011	0.721361	1.62242	0.79528	2.38233
0.255258	1.42273	0.144345	2.25362	0.397679	4.00971	0.509376	3.72551	0.64102	2.08386	0.882951	1.13241	0.353722	3.19805	0.497894	2.21496	0.72288	1.639	0.797511	2.40756
0.256578	1.41241	0.146444	2.2528	0.401418	4.01504	0.512856	3.74401	0.642975	2.11257	0.884012	1.14587	0.356688	3.16892	0.499974	2.24996	0.724415	1.65545	0.799766	2.43268
0.25789	1.40355	0.148543	2.25199	0.405161	4.01818	0.516352	3.76216	0.644957	2.14171	0.885086	1.15932	0.359627	3.13909	0.502087	2.28511	0.725965	1.67172	0.802044	2.45771
0.259194	1.39608	0.15064	2.25114	0.408906	4.01913	0.519866	3.77992	0.646966	2.17122	0.886172	1.17282	0.362537	3.10864	0.504232	2.32041	0.72753	1.68793	0.804346	2.48259
0.260491	1.38985	0.152737	2.25032	0.41265	4.01803	0.523396	3.79722	0.648739	2.19726	0.887271	1.18626	0.365419	3.0776	0.506411	2.35582	0.72911	1.70401	0.806671	2.50737
0.261783	1.38476	0.154834	2.2495	0.416393	4.01503	0.526942	3.81418	0.650268	2.21972	0.888383	1.19973	0.368272	3.04596	0.508622	2.39122	0.730705	1.72	0.809018	2.53202
0.263071	1.38075	0.156929	2.24873	0.420132	4.01016	0.530503	3.83068	0.651543	2.23852	0.889507	1.21321	0.371095	3.01385	0.510866	2.4266	0.732315	1.73586	0.811389	2.55658
0.264356	1.37772	0.159024	2.24794	0.423865	4.00355	0.53408	3.84674	0.65256	2.25351	0.890643	1.22668	0.373888	2.98135	0.513144	2.46195	0.73394	1.75161	0.813782	2.581
0.265639	1.37558	0.161118	2.24714	0.427592	3.9953	0.537671	3.86234	0.653312	2.26469	0.891793	1.24021	0.376651	2.94847	0.515454	2.4972	0.735579	1.76729	0.816198	2.60524
0.26692	1.37426	0.163211	2.24641	0.43131	3.98546	0.541277	3.87747	0.653795	2.27179	0.892954	1.25367	0.379382	2.91523	0.517797	2.53222	0.737233	1.78283	0.818637	2.6294
0.268199	1.37367	0.165304	2.24564	0.435018	3.97417	0.544896	3.8921	0.654492	2.28199	0.894129	1.26717	0.382083	2.88176	0.520173	2.56705	0.738901	1.7983	0.821098	2.6534
0.269479	1.37378	0.167396	2.2449	0.438715	3.96146	0.548529	3.90619	0.655253	2.29334	0.895316	1.2807	0.384752	2.84814	0.52258	2.60168	0.740584	1.81373	0.823581	2.67723
0.270759	1.37449	0.169487	2.24419	0.4424	3.94734	0.552175	3.91976	0.656294	2.30877	0.896515	1.29422	0.38739	2.81438	0.52502	2.63591	0.742281	1.82906	0.826086	2.70094
0.27204	1.3758	0.171578	2.24347	0.446071	3.93204	0.555833	3.93273	0.657621	2.32838	0.897727	1.30777	0.389996	2.78054	0.527492	2.66976	0.743992	1.84427	0.828614	2.72449
0.273323	1.37762	0.173667	2.24278	0.449727	3.91549	0.559503	3.94511	0.659241	2.35244	0.898952	1.32131	0.392571	2.74674	0.529995	2.7032	0.745717	1.85945	0.831163	2.74786
0.274607	1.37986	0.175757	2.24207	0.453367	3.89773	0.563185	3.9569	0.661162	2.38106	0.900189	1.33486	0.395115	2.71296	0.532529	2.73615	0.747457	1.87458	0.833734	2.77109
0.275894	1.38258	0.177845	2.24139	0.45699	3.87896	0.566877	3.96807	0.663396	2.41439	0.901439	1.3484	0.397626	2.67926	0.535094	2.76855	0.748984	1.8877	0.836327	2.79418
0.277184	1.38574	0.179933	2.24075	0.460595	3.85914	0.570579	3.97856	0.665661	2.44827	0.902702	1.36201	0.400107	2.64578	0.537688	2.80035	0.750295	1.89883	0.838941	2.81707
0.278476	1.38919	0.182021	2.24007	0.464181	3.83832	0.57429	3.98831	0.667958	2.48271	0.903977	1.37561	0.402557	2.61256	0.540312	2.83149	0.751384	1.90802	0.841576	2.83978
0.279772	1.393	0.184107	2.23943	0.467747	3.81662	0.57801	3.99736	0.670288	2.51777	0.905265	1.38918	0.404975	2.57958	0.542964	2.86189	0.752249	1.91538	0.844232	2.86234
0.281072	1.3971	0.186194	2.23882	0.471293	3.79402	0.581739	4.0057	0.67265	2.55343	0.906566	1.40285	0.407363	2.54694	0.545645	2.89159	0.752887	1.92063	0.84691	2.88469
0.282376	1.40142	0.188279	2.23819	0.474817	3.77057	0.585475	4.0132	0.675046	2.58967	0.907879	1.41649	0.409721	2.51473	0.548353	2.92054	0.753297	1.92402	0.849608	2.90684
0.283683	1.406	0.190364	2.23761	0.478319	3.74638	0.589217	4.01991	0.677475	2.62658	0.909205	1.43015	0.412049	2.48291	0.551087	2.94863	0.753887	1.92894	0.852326	2.92879
0.284996	1.41082	0.192449	2.237	0.481798	3.72148	0.592965	4.02584	0.67994	2.66412	0.910544	1.44384	0.414348	2.45155	0.553847	2.97583	0.754529	1.93423	0.855065	2.95058
0.286312	1.41586	0.194533	2.2364	0.485253	3.69584	0.596719	4.03088	0.68244	2.7023	0.911896	1.45753	0.416617	2.42075	0.556632	3.0021	0.755406	1.94153	0.857824	2.97218
0.287634	1.42102	0.196616	2.23588	0.488685	3.66962	0.600476	4.03506	0.684975	2.74116	0.91326	1.47128	0.418859	2.39047	0.559441	3.0275	0.75652	1.95062	0.860604	2.99356
0.28896	1.42635	0.198699	2.23532	0.492091	3.64285	0.604238	4.03831	0.687548	2.78062	0.914637	1.48501	0.421072	2.36076	0.562273	3.05192	0.757874	1.96166	0.863403	3.01471
0.290292	1.43183	0.200781	2.23472	0.495473	3.61551	0.608001	4.04064	0.690157	2.82075	0.916027	1.49878	0.423258	2.33163	0.565128	3.0753	0.759472	1.97457	0.866221	3.0357
0.291628	1.43739	0.202863	2.23419	0.498829	3.58763	0.611767	4.04202	0.692804	2.86155	0.91743	1.51262	0.425417	2.30314	0.568004	3.09772	0.761318	1.98935	0.869059	3.05643
0.29297	1.4431	0.204945	2.23371	0.502158	3.55934	0.615533	4.04249	0.695489	2.90296	0.918846	1.52646	0.427549	2.27539	0.5709	3.11911	0.763179	2.00418	0.871916	3.07694
