Sym0		Asym0		Sym1		Sym2		Asym1	
473  Points		491  Points		473  Points		215  Points		393  Points	
Freq (MHz)	Vgr (m/ms)	Freq (MHz)	Vgr (m/ms)	Freq (MHz)	Vgr (m/ms)	Freq (MHz)	Vgr (m/ms)	Freq (MHz)	Vgr (m/ms)
0.00919521	9.94935	0.000358481	0.578088	0.00425033	9.95089	0.279511	0.151712	0.139993	0.921911
0.018465	9.94705	0.000897083	0.70006	0.0135215	9.94917	0.279652	0.268857	0.140852	1.2502
0.0277304	9.94117	0.00166297	0.934468	0.0227895	9.94459	0.280012	0.501566	0.142323	1.89508
0.0369892	9.93277	0.00263836	1.14822	0.0320522	9.93755	0.280587	0.730118	0.144384	2.51293
0.0462391	9.92175	0.00380254	1.339	0.041307	9.92795	0.281372	0.952481	0.147006	3.09741
0.0554773	9.908	0.00513344	1.50596	0.0505518	9.9157	0.282362	1.16671	0.150155	3.6442
0.0647015	9.89127	0.00660873	1.6496	0.0597839	9.90059	0.283546	1.37106	0.153796	4.15087
0.0739086	9.87128	0.00820729	1.77135	0.0690005	9.88236	0.284916	1.56369	0.15789	4.61667
0.0830956	9.84777	0.00990946	1.87314	0.0781986	9.86079	0.28646	1.74283	0.162399	5.04223
0.0922589	9.82024	0.0116977	1.95724	0.087375	9.83543	0.288164	1.90689	0.167286	5.42914
0.101395	9.78826	0.0135566	2.026	0.0965258	9.80588	0.290013	2.05462	0.172515	5.77947
0.110498	9.75133	0.0154729	2.08162	0.105647	9.77169	0.291993	2.18505	0.178055	6.09583
0.119565	9.70865	0.0174354	2.12629	0.114734	9.73217	0.294085	2.29753	0.183874	6.38086
0.128589	9.65949	0.019435	2.16193	0.123782	9.68659	0.296274	2.39211	0.189945	6.63725
0.137564	9.60276	0.0212014	2.18689	0.132784	9.63404	0.298542	2.46957	0.196242	6.86751
0.146483	9.53728	0.0227216	2.20432	0.141734	9.57339	0.300876	2.53164	0.202742	7.07411
0.155336	9.46168	0.023987	2.21638	0.150623	9.50336	0.30326	2.58083	0.209424	7.25932
0.164114	9.37415	0.0249919	2.22458	0.159442	9.42241	0.305685	2.62071	0.216269	7.42508
0.172804	9.2726	0.0257331	2.23017	0.168181	9.32862	0.308143	2.65593	0.22326	7.57328
0.181392	9.1547	0.0262084	2.23339	0.176825	9.21977	0.310634	2.69188	0.230381	7.70555
0.189863	9.01755	0.0268928	2.23742	0.185361	9.09327	0.313159	2.73448	0.237618	7.82339
0.198195	8.85779	0.027638	2.24157	0.19377	8.94603	0.315729	2.79031	0.244959	7.92804
0.206368	8.6718	0.0286536	2.24656	0.202031	8.77452	0.318359	2.86592	0.252391	8.02059
0.214354	8.45561	0.029941	2.25187	0.21012	8.57492	0.321069	2.96794	0.259904	8.10212
0.222124	8.20509	0.0315016	2.25713	0.218009	8.3432	0.323889	3.10275	0.267489	8.1734
0.229644	7.91652	0.0333364	2.26186	0.225667	8.07534	0.326851	3.276	0.275135	8.23518
0.236876	7.5873	0.0354459	2.26579	0.233057	7.76805	0.329994	3.49248	0.282834	8.28821
0.243782	7.21649	0.0375584	2.26838	0.240141	7.41941	0.333359	3.75545	0.290579	8.33289
0.250323	6.80593	0.0396728	2.26993	0.246882	7.02961	0.336991	4.0657	0.298361	8.36967
0.256464	6.36091	0.0417882	2.27067	0.25324	6.60208	0.340935	4.42084	0.306175	8.39899
0.262176	5.89047	0.0439039	2.27082	0.259184	6.14384	0.345229	4.81485	0.314012	8.42116
0.26744	5.40698	0.0460196	2.27056	0.264689	5.66564	0.349907	5.23776	0.321867	8.43633
0.272251	4.92451	0.0481348	2.26992	0.269741	5.18086	0.354989	5.67637	0.329732	8.44465
0.276616	4.45702	0.0502493	2.26902	0.274343	4.70369	0.360484	6.11603	0.337602	8.44625
0.280556	4.01642	0.0523629	2.26794	0.278506	4.24742	0.366386	6.54249	0.345471	8.44119
0.2841	3.61137	0.0544754	2.26678	0.282257	3.82258	0.372675	6.94372	0.353332	8.42946
0.287286	3.24674	0.0565868	2.26554	0.285629	3.43602	0.379325	7.31121	0.361178	8.41089
0.29015	2.92397	0.058697	2.26422	0.28866	3.09093	0.386299	7.6402	0.369004	8.38542
0.292734	2.64201	0.0608059	2.26294	0.291389	2.78747	0.393561	7.92919	0.376803	8.35291
0.295074	2.39793	0.0629137	2.26165	0.293854	2.5236	0.401074	8.17925	0.384569	8.31311
0.297202	2.18801	0.0650203	2.26037	0.296091	2.29529	0.408802	8.39309	0.392294	8.26572
0.299151	2.00827	0.0671257	2.25915	0.29788	2.12241	0.416714	8.57408	0.399971	8.21049
0.300945	1.8546	0.0692299	2.25795	0.299301	1.99258	0.424779	8.72599	0.407593	8.14706
0.302607	1.72341	0.0713331	2.25684	0.300413	1.89613	0.432974	8.85251	0.415152	8.07506
0.304156	1.61147	0.0734353	2.25574	0.301254	1.82635	0.441275	8.95692	0.42264	7.99412
0.305609	1.51583	0.0755365	2.25464	0.301854	1.77827	0.449664	9.04213	0.430049	7.90388
0.306981	1.43413	0.0776366	2.25365	0.302229	1.74905	0.458124	9.11066	0.437368	7.80395
0.308282	1.36424	0.0797359	2.25275	0.302759	1.70917	0.466641	9.16459	0.44459	7.69396
0.309523	1.30446	0.0818343	2.25182	0.30332	1.66812	0.475201	9.20572	0.451705	7.57367
0.310712	1.2533	0.0839319	2.25096	0.304063	1.61596	0.483794	9.23548	0.458703	7.4428
0.311858	1.2095	0.0860287	2.25016	0.30497	1.55545	0.49241	9.255	0.465574	7.30134
0.312966	1.17208	0.0881248	2.24939	0.306022	1.4896	0.50104	9.26526	0.472308	7.14928
0.314042	1.14015	0.0902202	2.24868	0.307202	1.42143	0.509675	9.2671	0.478896	6.98675
0.315091	1.1129	0.092315	2.24796	0.308492	1.35363	0.518308	9.26104	0.485327	6.81418
0.316116	1.08977	0.0944091	2.2473	0.309724	1.29538	0.526932	9.24752	0.491593	6.63214
0.317121	1.07023	0.0965026	2.24672	0.310906	1.24552	0.53554	9.22701	0.497686	6.44143
0.31811	1.05378	0.0985956	2.24617	0.312045	1.20287	0.544126	9.19975	0.503596	6.24312
0.319085	1.04008	0.100688	2.24561	0.313148	1.16638	0.552683	9.16596	0.509319	6.0384
0.320048	1.02878	0.10278	2.24507	0.314219	1.13529	0.561205	9.12577	0.514848	5.82861
0.321002	1.01959	0.104872	2.24458	0.315263	1.10879	0.569688	9.07931	0.52018	5.61535
0.321948	1.01227	0.106963	2.24411	0.316285	1.08631	0.578124	9.02675	0.525312	5.40021
0.322888	1.00657	0.109053	2.2437	0.317287	1.06727	0.586508	8.96814	0.530243	5.18483
0.323824	1.00234	0.111143	2.24327	0.318273	1.05131	0.594835	8.90349	0.534973	4.97078
0.324756	0.999444	0.113233	2.24287	0.319246	1.03805	0.603099	8.83295	0.539505	4.75955
0.325686	0.997686	0.115323	2.24249	0.320208	1.0271	0.611294	8.75652	0.543842	4.55258
0.326615	0.996955	0.117412	2.24215	0.32116	1.01822	0.619416	8.67436	0.547988	4.35104
0.327544	0.997177	0.119501	2.2418	0.322105	1.01122	0.627458	8.58658	0.55195	4.15589
0.328473	0.998206	0.121589	2.24148	0.323044	1.00577	0.635416	8.49325	0.555732	3.96797
0.329404	0.999971	0.123678	2.24117	0.323979	1.00177	0.643284	8.3945	0.559344	3.78796
0.330337	1.0024	0.125765	2.24087	0.324911	0.999073	0.651058	8.29052	0.562791	3.61618
0.331272	1.00544	0.127853	2.24061	0.325841	0.997504	0.658732	8.18143	0.566082	3.45288
0.33221	1.00901	0.129941	2.24033	0.32677	0.99694	0.666303	8.06741	0.569225	3.29824
0.333152	1.01302	0.132028	2.24009	0.327699	0.99728	0.673765	7.94873	0.572228	3.15215
0.334098	1.01751	0.134115	2.23982	0.328628	0.998439	0.681115	7.82554	0.575099	3.01451
0.335048	1.02239	0.136201	2.23961	0.329559	1.00034	0.688347	7.6981	0.577845	2.88505
0.336003	1.02761	0.138288	2.23939	0.330492	1.0029	0.695459	7.56665	0.580475	2.76353
0.336963	1.03315	0.140374	2.23914	0.331428	1.00597	0.702447	7.4314	0.582995	2.64956
0.337928	1.03895	0.14246	2.23898	0.332367	1.00963	0.709307	7.29274	0.585107	2.55598
0.338899	1.04506	0.144546	2.23878	0.333309	1.01377	0.716036	7.15092	0.586849	2.48045
0.339875	1.05134	0.146632	2.23858	0.334256	1.01829	0.722632	7.00622	0.588251	2.42077
0.340858	1.05783	0.148718	2.2384	0.335207	1.02323	0.729091	6.85905	0.589336	2.3752
0.341846	1.06451	0.150803	2.23824	0.336162	1.02852	0.735413	6.70973	0.590121	2.34275
0.342841	1.07134	0.152888	2.23809	0.337123	1.03409	0.741594	6.55869	0.590618	2.3225
0.343843	1.07835	0.154974	2.2379	0.338089	1.03995	0.747634	6.4063	0.591324	2.29393
0.344851	1.08548	0.157058	2.23777	0.339061	1.04607	0.753532	6.25291	0.592083	2.26352
0.345865	1.0927	0.159143	2.23763	0.340039	1.05239	0.759286	6.09907	0.593098	2.22341
0.346887	1.10004	0.161228	2.23745	0.341022	1.05895	0.764897	5.94512	0.594356	2.17459
0.347915	1.10748	0.163313	2.23733	0.342012	1.06568	0.770364	5.79147	0.595841	2.11824
0.348951	1.11495	0.165397	2.23723	0.343008	1.07252	0.775688	5.63863	0.597535	2.05574
0.349993	1.12249	0.167481	2.2371	0.34401	1.07953	0.780871	5.48691	0.599418	1.98836
0.351042	1.13011	0.169566	2.23697	0.345019	1.08666	0.785913	5.3367	0.60124	1.9254
0.352099	1.13781	0.17165	2.23683	0.346035	1.09392	0.790815	5.1884	0.603005	1.86664
0.353162	1.14551	0.173734	2.23672	0.347058	1.10125	0.795581	5.0423	0.604718	1.81185
0.354233	1.15322	0.175818	2.23663	0.348087	1.10869	0.800211	4.89872	0.606382	1.76069
0.355311	1.16096	0.177901	2.23655	0.349124	1.11622	0.804709	4.75798	0.607999	1.71291
0.356397	1.16874	0.179985	2.23644	0.350167	1.12379	0.809077	4.62026	0.609573	1.66837
0.357489	1.17654	0.182069	2.23631	0.351218	1.13142	0.813318	4.48575	0.611108	1.6268
0.358589	1.18429	0.184152	2.23624	0.352275	1.13904	0.817436	4.35464	0.612605	1.58796
0.359696	1.19211	0.186236	2.23614	0.35334	1.14677	0.821433	4.22704	0.614067	1.55166
0.36081	1.19992	0.188319	2.23605	0.354412	1.15452	0.825312	4.10309	0.615496	1.5178
0.361787	1.20667	0.190402	2.23596	0.355492	1.16224	0.829078	3.98285	0.616895	1.48622
0.362624	1.2124	0.192486	2.23585	0.356578	1.17006	0.832734	3.86638	0.618265	1.4567
0.36332	1.2172	0.194569	2.23579	0.357672	1.17784	0.836283	3.75369	0.619609	1.42912
0.363871	1.22104	0.196652	2.23573	0.358773	1.18558	0.839729	3.64476	0.620928	1.40335
0.364278	1.22367	0.198735	2.23566	0.359881	1.19341	0.843074	3.53962	0.622224	1.3793
0.364539	1.2254	0.200818	2.23559	0.360997	1.2012	0.846324	3.43819	0.623499	1.35687
0.364914	1.22808	0.202901	2.23548	0.362119	1.20895	0.849481	3.34043	0.624753	1.33592
0.365323	1.23087	0.204983	2.23542	0.363249	1.21674	0.852549	3.24627	0.625988	1.31636
0.365881	1.23454	0.207066	2.2354	0.364387	1.22448	0.855152	3.16704	0.627206	1.29812
0.366589	1.23927	0.209149	2.23531	0.365531	1.23219	0.857321	3.10156	0.628407	1.28109
0.367449	1.24498	0.211231	2.23523	0.366683	1.23993	0.859081	3.04886	0.629593	1.26522
0.368462	1.25166	0.213314	2.23515	0.367842	1.24761	0.860451	3.00807	0.630764	1.25043
0.369632	1.25933	0.215396	2.23512	0.369007	1.25522	0.861447	2.97856	0.631923	1.23663
0.370809	1.26693	0.217479	2.23506	0.370181	1.26283	0.862079	2.95996	0.633069	1.2238
0.371993	1.2745	0.219561	2.235	0.371361	1.27045	0.862981	2.93358	0.634203	1.21185
0.373184	1.28202	0.221643	2.23496	0.372548	1.27803	0.863953	2.90526	0.635327	1.20075
0.374382	1.28948	0.223726	2.23487	0.373742	1.28552	0.865259	2.86742	0.636441	1.19044
0.375587	1.29695	0.225808	2.23483	0.374943	1.293	0.866886	2.82061	0.637545	1.18089
0.376799	1.30442	0.22789	2.23481	0.376151	1.30044	0.868819	2.76554	0.638641	1.17205
0.378017	1.31177	0.229972	2.23472	0.377366	1.30782	0.871039	2.70313	0.639729	1.16382
0.379243	1.31908	0.232054	2.23468	0.378588	1.31521	0.873524	2.63411	0.64081	1.15623
0.380475	1.32636	0.234136	2.23466	0.379817	1.32249	0.875947	2.56786	0.641884	1.14924
0.381714	1.33362	0.236218	2.23461	0.381053	1.32976	0.878309	2.50441	0.642951	1.14282
0.38296	1.34081	0.2383	2.23455	0.382295	1.33698	0.880614	2.44353	0.644013	1.1369
0.384213	1.34795	0.240382	2.23448	0.383544	1.34414	0.882863	2.38515	0.64507	1.13145
0.385472	1.35508	0.242464	2.23445	0.3848	1.35128	0.885058	2.32926	0.646122	1.12649
0.386738	1.36212	0.244546	2.23443	0.386062	1.35836	0.887203	2.27576	0.647169	1.122
0.38801	1.36908	0.246627	2.23439	0.387331	1.36538	0.889299	2.22443	0.648212	1.11792
0.389289	1.37604	0.248709	2.23433	0.388606	1.37233	0.891348	2.1753	0.649252	1.11423
0.390574	1.38296	0.250791	2.2343	0.389888	1.37929	0.893352	2.12824	0.650289	1.11093
0.391866	1.38979	0.252873	2.23429	0.391176	1.38617	0.895314	2.08315	0.651322	1.10792
0.393164	1.39658	0.254954	2.23424	0.392471	1.39298	0.897234	2.03998	0.652353	1.10528
0.394468	1.40334	0.257036	2.23418	0.393772	1.39972	0.899115	1.99862	0.653382	1.103
0.395779	1.41005	0.259117	2.23415	0.395079	1.40646	0.900958	1.95905	0.654408	1.10099
0.397096	1.41667	0.261199	2.23414	0.396393	1.41312	0.902765	1.92113	0.655433	1.09925
0.398419	1.42324	0.26328	2.2341	0.397712	1.41972	0.904538	1.88481	0.656457	1.09779
0.399748	1.42978	0.265362	2.23404	0.399038	1.42631	0.906278	1.85007	0.657479	1.09659
0.401083	1.43624	0.267443	2.23401	0.40037	1.43283	0.907985	1.81676	0.6585	1.09562
0.402424	1.44265	0.269525	2.23399	0.401708	1.43927	0.909663	1.78488	0.65952	1.09492
0.403771	1.44908	0.271606	2.23399	0.403052	1.44568	0.911311	1.7544	0.66054	1.09446
0.405124	1.45541	0.273688	2.23395	0.404402	1.45203	0.912932	1.72516	0.66156	1.09415
0.406483	1.46165	0.275769	2.23389	0.405758	1.45829	0.914526	1.69711	0.662579	1.09404
0.407848	1.46785	0.27785	2.23386	0.407119	1.46453	0.916094	1.67034	0.663598	1.09416
0.409219	1.47398	0.279931	2.23385	0.408487	1.47076	0.917638	1.64468	0.664618	1.09444
0.410595	1.48013	0.282013	2.23384	0.40986	1.47688	0.919159	1.62007	0.665638	1.09488
0.411977	1.4862	0.284094	2.2338	0.411239	1.48294	0.920657	1.59655	0.666658	1.0955
0.413364	1.49217	0.286175	2.23374	0.412623	1.48897	0.922134	1.57403	0.667679	1.09625
0.414757	1.49812	0.288256	2.23375	0.414013	1.49496	0.92359	1.5524	0.668701	1.09717
0.416156	1.50403	0.290337	2.23372	0.415409	1.50088	0.925027	1.53174	0.669724	1.09826
0.41756	1.50987	0.292419	2.23367	0.41681	1.50677	0.926445	1.51196	0.670747	1.09942
0.418969	1.51565	0.2945	2.23368	0.418217	1.51261	0.927844	1.49298	0.671772	1.10074
0.420384	1.5214	0.296581	2.23364	0.419629	1.51835	0.929227	1.47485	0.672798	1.10216
0.421804	1.52709	0.298662	2.23359	0.421046	1.52404	0.930592	1.45748	0.673826	1.10372
0.423229	1.53272	0.300743	2.2336	0.422469	1.5297	0.931942	1.44084	0.674855	1.10541
0.42466	1.53832	0.302824	2.23357	0.423896	1.53535	0.933277	1.42494	0.675886	1.10714
0.426096	1.54383	0.304905	2.23352	0.42533	1.54092	0.934598	1.40967	0.676918	1.10899
0.427537	1.54933	0.306986	2.23353	0.426768	1.54638	0.935904	1.39504	0.677952	1.11098
0.428983	1.55479	0.309067	2.23353	0.428211	1.55186	0.937197	1.38109	0.678988	1.11303
0.430434	1.56015	0.311148	2.2335	0.42966	1.55731	0.938478	1.36775	0.680026	1.11516
0.43189	1.56547	0.313229	2.23345	0.431113	1.56263	0.939746	1.35493	0.681066	1.11736
0.433351	1.57073	0.31531	2.23342	0.432571	1.56793	0.941002	1.34265	0.682108	1.11967
0.434817	1.576	0.31739	2.23341	0.434035	1.57322	0.942248	1.33099	0.683153	1.12203
0.436288	1.5812	0.319471	2.2334	0.435503	1.57846	0.943482	1.31977	0.684199	1.12445
0.437763	1.58632	0.321552	2.2334	0.436976	1.58361	0.944707	1.30904	0.685248	1.12695
0.439244	1.59145	0.323633	2.23336	0.438454	1.58871	0.945922	1.2988	0.686299	1.12951
0.440729	1.59647	0.325714	2.23334	0.439936	1.59379	0.947127	1.28903	0.687353	1.13215
0.442219	1.60143	0.327794	2.23333	0.441424	1.59878	0.948324	1.27968	0.688409	1.13483
0.443713	1.60644	0.329875	2.23329	0.442915	1.60377	0.949512	1.27068	0.689467	1.13755
0.445212	1.61132	0.331956	2.2333	0.444412	1.60871	0.950691	1.26215	0.690528	1.14035
0.446716	1.61614	0.334037	2.23327	0.445913	1.61357	0.951864	1.25401	0.691592	1.14317
0.448224	1.62101	0.336117	2.23322	0.447419	1.61841	0.953028	1.2462	0.692659	1.14605
0.449736	1.62575	0.338198	2.23323	0.448929	1.62321	0.954186	1.23878	0.693728	1.14899
0.451253	1.63046	0.340279	2.23324	0.450443	1.62796	0.955336	1.2317	0.6948	1.15196
0.452774	1.63516	0.34236	2.23321	0.451962	1.63267	0.956481	1.2249	0.695874	1.15498
0.4543	1.63975	0.34444	2.23319	0.453486	1.6373	0.957619	1.21846	0.696952	1.158
0.45583	1.64434	0.346521	2.23318	0.455013	1.64189	0.958751	1.21235	0.698032	1.16108
0.457364	1.64891	0.348601	2.23314	0.456545	1.64649	0.959878	1.20647	0.699115	1.16423
0.458902	1.6534	0.350682	2.23312	0.458081	1.65102	0.960999	1.2009	0.700202	1.16735
0.460445	1.65787	0.352763	2.23311	0.459622	1.65549	0.962116	1.19562	0.701291	1.17051
0.461992	1.66227	0.354843	2.2331	0.461166	1.65991	0.963227	1.1906	0.702383	1.17375
0.463542	1.66663	0.356924	2.2331	0.462715	1.66433	0.964334	1.18582	0.703478	1.17697
0.465097	1.67101	0.359004	2.2331	0.464267	1.66869	0.965437	1.18127	0.704576	1.1802
0.466656	1.67528	0.361085	2.23306	0.465824	1.673	0.966535	1.17698	0.705677	1.1835
0.468219	1.67951	0.363165	2.23305	0.467385	1.67724	0.96763	1.1729	0.706781	1.18683
0.469786	1.68371	0.365246	2.23304	0.46895	1.68149	0.968721	1.16902	0.707888	1.19014
0.471356	1.6879	0.367326	2.23299	0.470518	1.6857	0.969808	1.1654	0.708999	1.19345
0.472931	1.69204	0.369407	2.23301	0.472091	1.68981	0.970893	1.16194	0.710112	1.19682
0.474509	1.69609	0.371487	2.23302	0.473667	1.69393	0.971974	1.15871	0.711229	1.20023
0.476091	1.70013	0.373568	2.23299	0.475247	1.69799	0.973052	1.15567	0.712349	1.20358
0.477677	1.70416	0.375648	2.23297	0.476831	1.70201	0.974127	1.15275	0.713472	1.20698
0.479267	1.70816	0.377729	2.23296	0.478419	1.70603	0.9752	1.15005	0.714598	1.21044
0.48086	1.7121	0.379809	2.23292	0.48001	1.71001	0.97627	1.14753	0.715727	1.21388
0.482457	1.71597	0.38189	2.2329	0.481605	1.71391	0.977338	1.14513	0.71686	1.21733
0.484058	1.71981	0.38397	2.23293	0.483204	1.71777	0.978404	1.14295	0.717996	1.22077
0.485662	1.72363	0.38605	2.2329	0.484806	1.7216	0.979468	1.1409	0.719135	1.22422
0.48727	1.72745	0.388131	2.23289	0.486412	1.72542	0.98053	1.13896	0.720277	1.2277
0.488881	1.73119	0.390211	2.23289	0.488021	1.72919	0.98159	1.13719	0.721422	1.2312
0.490495	1.73489	0.392291	2.23288	0.489634	1.73291	0.982649	1.13557	0.722571	1.2347
0.492114	1.73861	0.394372	2.23288	0.49125	1.73664	0.983706	1.13406	0.723723	1.23818
0.493735	1.74223	0.396452	2.23284	0.49287	1.7403	0.984762	1.13269	0.724878	1.24167
0.49536	1.74583	0.398533	2.23283	0.494493	1.74389	0.985817	1.13145	0.726037	1.24521
0.496988	1.74943	0.400613	2.23282	0.496119	1.74751	0.98687	1.13028	0.727199	1.24871
0.49862	1.75294	0.402693	2.23281	0.497749	1.75108	0.987923	1.12929	0.728364	1.25221
0.500255	1.75646	0.404773	2.23281	0.499382	1.75459	0.988975	1.1284	0.729532	1.25576
0.501893	1.75994	0.406854	2.23277	0.501019	1.7581	0.990026	1.12758	0.730704	1.25925
0.503534	1.76337	0.408934	2.23275	0.502658	1.76154	0.991076	1.12692	0.731878	1.26279
0.505179	1.76676	0.411014	2.23278	0.504301	1.76494	0.992126	1.1263	0.733057	1.26632
0.506826	1.77015	0.413094	2.23279	0.505947	1.76837	0.993175	1.1258	0.734238	1.26981
0.508477	1.77352	0.415175	2.23276	0.507596	1.77173	0.994223	1.12544	0.735423	1.27338
0.510131	1.77682	0.417255	2.23271	0.509249	1.77505	0.995272	1.12515	0.736611	1.27689
0.511788	1.78008	0.419335	2.23272	0.510904	1.77833	0.99632	1.1249	0.737802	1.2804
0.513448	1.78332	0.421415	2.23273	0.512562	1.78162	0.997368	1.12477	0.738997	1.28395
0.515111	1.78656	0.423496	2.23269	0.514224	1.78487	0.998416	1.12475	0.740195	1.28745
0.516777	1.78975	0.425576	2.23271	0.515888	1.78803	0.999464	1.12473	0.741396	1.29095
0.518446	1.79292	0.427656	2.23269	0.517556	1.79123	1.00051	1.12475	0.7426	1.29446
0.520118	1.79604	0.429736	2.23267	0.519226	1.79436			0.743808	1.29801
0.521793	1.7991	0.431816	2.23267	0.520899	1.79747			0.745019	1.30151
0.52347	1.80221	0.433896	2.23266	0.522575	1.8006			0.746233	1.30498
0.525151	1.80526	0.435977	2.23266	0.524254	1.80363			0.747451	1.30851
0.526834	1.80826	0.438057	2.23262	0.525936	1.80664			0.748671	1.31203
0.52852	1.81125	0.440137	2.23264	0.527621	1.80965			0.749895	1.31551
0.530209	1.81422	0.442217	2.23261	0.529308	1.81262			0.751123	1.31897
0.531901	1.81713	0.444297	2.2326	0.530998	1.81557			0.752353	1.32246
0.533595	1.82001	0.446377	2.23263	0.532691	1.81847			0.753587	1.32593
0.535292	1.82288	0.448457	2.23261	0.534387	1.82139			0.754824	1.32938
0.536992	1.82574	0.450538	2.2326	0.536085	1.82424			0.756064	1.33287
0.538695	1.82857	0.452618	2.23259	0.537786	1.82705			0.757307	1.33633
0.5404	1.83137	0.454698	2.23255	0.53949	1.82989			0.758554	1.33975
0.542107	1.83416	0.456778	2.23257	0.541196	1.83266			0.759804	1.34321
0.543817	1.83688	0.458858	2.23258	0.542905	1.83544			0.761057	1.34667
0.54553	1.83959	0.460938	2.23255	0.544616	1.83819			0.762313	1.35004
0.547245	1.8423	0.463018	2.23253	0.54633	1.84084			0.763573	1.35349
0.548963	1.84498	0.465098	2.23252	0.548046	1.84352			0.764835	1.3569
0.550683	1.84759	0.467178	2.23252	0.549765	1.84622			0.766101	1.36028
0.552406	1.85022	0.469258	2.23252	0.551487	1.84885			0.76737	1.3637
0.554131	1.85282	0.471338	2.23251	0.55321	1.85141			0.768642	1.36705
0.555858	1.85536	0.473418	2.23251	0.554937	1.85401			0.769917	1.37045
0.557588	1.85795	0.475498	2.23248	0.556665	1.85659			0.771196	1.37384
