Sym0		Asym0		Sym1		Sym2		Sym3		Sym4		Asym1		Asym2		Asym3		Asym4	
501  Points		503  Points		399  Points		256  Points		199  Points		176  Points		458  Points		322  Points		222  Points		166  Points	
Freq (MHz)	Vph (m/ms)	Freq (MHz)	Vph (m/ms)	Freq (MHz)	Vph (m/ms)	Freq (MHz)	Vph (m/ms)	Freq (MHz)	Vph (m/ms)	Freq (MHz)	Vph (m/ms)	Freq (MHz)	Vph (m/ms)	Freq (MHz)	Vph (m/ms)	Freq (MHz)	Vph (m/ms)	Freq (MHz)	Vph (m/ms)
0.00190554	4.64107	0.000345627	0.152321	0.279506	651.325	0.328404	501.905	0.559018	2445.8	0.838528	1211.41	0.139755	1214.81	0.419272	481.718	0.656758	4699.7	0.698773	2188.14
0.00622925	4.64081	0.000685567	0.214188	0.279481	205.376	0.328526	207.14	0.559033	481.818	0.838541	516.379	0.139849	133.605	0.419303	232.68	0.656769	612.978	0.698795	558.571
0.0105519	4.6403	0.001138	0.27538	0.279432	121.888	0.328749	130.575	0.559069	267.247	0.838565	328.131	0.140092	70.8097	0.419356	153.399	0.656798	327.885	0.698844	320.169
0.0148729	4.63956	0.00170008	0.335709	0.279358	86.6437	0.329072	95.3997	0.559125	184.917	0.838599	240.474	0.140484	48.274	0.419431	114.428	0.656845	223.81	0.69892	224.413
0.0191915	4.63857	0.00236861	0.395042	0.279263	67.1965	0.329492	75.2077	0.559202	141.379	0.838643	189.782	0.141021	36.7069	0.419527	91.2581	0.656909	169.897	0.699022	172.763
0.0235069	4.63732	0.00313962	0.453208	0.279147	54.8681	0.330009	62.1159	0.559299	114.445	0.838698	156.746	0.141703	29.6852	0.419645	75.901	0.656991	136.924	0.699151	140.453
0.0278184	4.63581	0.00400898	0.510098	0.279014	46.3532	0.330618	52.9457	0.559416	96.1406	0.838763	133.511	0.142524	24.9814	0.419785	64.9767	0.65709	114.677	0.699307	118.336
0.0321252	4.63403	0.00497216	0.565601	0.278866	40.1188	0.331319	46.1692	0.559555	82.8917	0.838838	116.278	0.143482	21.6188	0.419946	56.8091	0.657207	98.6559	0.699489	102.246
0.0364267	4.632	0.00602444	0.619631	0.278706	35.3567	0.332107	40.961	0.559713	72.8592	0.838924	102.989	0.144572	19.1015	0.420129	50.4724	0.657342	86.5686	0.699698	90.0175
0.040722	4.62969	0.00716088	0.67211	0.278538	31.6004	0.332979	36.8357	0.559892	64.9993	0.839021	92.4292	0.145789	17.1511	0.420333	45.4138	0.657494	77.1254	0.699933	80.4095
0.0450103	4.6271	0.00837665	0.722997	0.278364	28.5617	0.333932	33.4895	0.560092	58.6759	0.839128	83.8361	0.147128	15.5989	0.420559	41.2826	0.657664	69.5448	0.700195	72.6622
0.0492908	4.62424	0.00966689	0.772257	0.278189	26.0531	0.334964	30.7223	0.560311	53.4791	0.839245	76.7076	0.148585	14.337	0.420807	37.8457	0.657851	63.3256	0.700483	66.2835
0.0535627	4.62109	0.0110266	0.819859	0.278016	23.9473	0.336071	28.3972	0.560552	49.1328	0.839373	70.6987	0.150153	13.2933	0.421077	34.9421	0.658056	58.1317	0.700798	60.9406
0.057825	4.61764	0.0124512	0.865804	0.277847	22.1548	0.337249	26.417	0.560812	45.4445	0.839511	65.5652	0.151827	12.4173	0.421368	32.4568	0.658278	53.7292	0.70114	56.4008
0.0620769	4.6139	0.0139361	0.910095	0.277687	20.6108	0.338497	24.7113	0.561093	42.2755	0.83966	61.1288	0.153603	11.673	0.42168	30.306	0.658518	49.9502	0.701508	52.496
0.0663173	4.60985	0.0154769	0.952745	0.277538	19.2674	0.33981	23.2273	0.561395	39.5237	0.839819	57.2567	0.155474	11.034	0.422014	28.4265	0.658775	46.6714	0.701902	49.102
0.0705453	4.60548	0.0170693	0.993779	0.277404	18.0882	0.341187	21.9251	0.561716	37.1121	0.839989	53.8478	0.157436	10.4803	0.42237	26.7704	0.65905	43.7998	0.702323	46.1251
0.0747599	4.60078	0.0187095	1.03323	0.277288	17.0451	0.342624	20.7737	0.562058	34.9813	0.84017	50.8239	0.159484	9.99657	0.422747	25.3003	0.659342	41.2642	0.70277	43.4932
0.07896	4.59575	0.0203937	1.07112	0.277193	16.1162	0.344119	19.7488	0.562421	33.0854	0.84036	48.1232	0.161613	9.57105	0.423145	23.9866	0.659652	39.009	0.703244	41.1498
0.0831444	4.59037	0.0221183	1.10751	0.27712	15.284	0.345671	18.831	0.562803	31.3876	0.840562	45.6966	0.163817	9.19432	0.423565	22.806	0.65998	36.9903	0.703744	39.0501
0.0873118	4.58462	0.0238801	1.14243	0.277074	14.5346	0.347277	18.0046	0.563206	29.8586	0.840773	43.5046	0.166094	8.85886	0.424007	21.7392	0.660324	35.1729	0.704271	37.1583
0.0914611	4.57851	0.025676	1.17593	0.277057	13.8565	0.348934	17.257	0.563629	28.4745	0.840996	41.5147	0.168438	8.55859	0.42447	20.7707	0.660687	33.5283	0.704823	35.4451
0.095591	4.57201	0.0275031	1.20806	0.277071	13.2402	0.350641	16.5775	0.564072	27.2159	0.841229	39.7003	0.170846	8.28855	0.424954	19.8877	0.661066	32.033	0.705402	33.8865
0.0997	4.56511	0.0293586	1.23886	0.277119	12.6781	0.352397	15.9576	0.564536	26.0665	0.841472	38.0392	0.173314	8.04464	0.42546	19.0795	0.661463	30.6677	0.706008	32.4626
0.103787	4.55779	0.0312403	1.2684	0.277203	12.1634	0.354199	15.3899	0.565019	25.0128	0.841726	36.5129	0.175838	7.82345	0.425987	18.337	0.661878	29.4162	0.706639	31.1569
0.107849	4.55004	0.0331458	1.29671	0.277326	11.6909	0.356046	14.8683	0.565523	24.0434	0.841991	35.1055	0.178414	7.62211	0.426535	17.6526	0.66231	28.265	0.707297	29.9553
0.111887	4.54184	0.035073	1.32385	0.27749	11.2557	0.357937	14.3875	0.566047	23.1487	0.842266	33.8039	0.18104	7.43822	0.427105	17.0199	0.662759	27.2026	0.707981	28.8461
0.115897	4.53317	0.0370199	1.34987	0.277697	10.854	0.359871	13.943	0.566591	22.3205	0.842552	32.5965	0.183366	7.29059	0.427696	16.4333	0.663225	26.2191	0.708691	27.819
0.119877	4.52401	0.0389848	1.37481	0.277951	10.4821	0.361845	13.5311	0.567155	21.5517	0.842849	31.4735	0.185375	7.17308	0.428309	15.8881	0.663709	25.3061	0.709428	26.8653
0.123827	4.51435	0.040966	1.39872	0.278253	10.1373	0.363859	13.1483	0.567739	20.8362	0.843156	30.4264	0.187054	7.08122	0.428943	15.3801	0.66421	24.4564	0.71019	25.9777
0.127744	4.50416	0.042962	1.42164	0.278605	9.81696	0.365912	12.7918	0.568343	20.1687	0.843473	29.4478	0.188392	7.01176	0.429598	14.9056	0.664728	23.6637	0.710979	25.1494
0.131626	4.49341	0.0449714	1.44363	0.279011	9.51877	0.368003	12.4591	0.568967	19.5447	0.843802	28.5312	0.189382	6.96237	0.430275	14.4616	0.665263	22.9225	0.711793	24.3749
0.135471	4.4821	0.0469929	1.46472	0.279472	9.24078	0.37013	12.1479	0.569611	18.96	0.844141	27.6709	0.190018	6.93149	0.430974	14.0453	0.665816	22.2279	0.712634	23.6491
0.139276	4.47019	0.0490254	1.48494	0.279992	8.98128	0.372294	11.8564	0.570275	18.4111	0.84449	26.862	0.190935	6.88804	0.431693	13.6541	0.666385	21.5759	0.7135	22.9678
0.143039	4.45767	0.0510679	1.50436	0.280573	8.73874	0.374492	11.5827	0.570959	17.8949	0.844851	26.1	0.191937	6.84206	0.432435	13.2861	0.666972	20.9625	0.714392	22.3269
0.146757	4.4445	0.052855	1.52063	0.281216	8.51179	0.376725	11.3254	0.571663	17.4086	0.845222	25.3809	0.193307	6.78149	0.433197	12.9391	0.667575	20.3845	0.715311	21.723
0.150428	4.43067	0.0543835	1.53406	0.281926	8.29922	0.378991	11.0831	0.572387	16.9498	0.845604	24.7013	0.195051	6.708	0.433982	12.6116	0.668195	19.8391	0.716255	21.1532
0.15405	4.41615	0.0556504	1.54486	0.282704	8.09998	0.381289	10.8546	0.57313	16.5161	0.845996	24.058	0.197177	6.62345	0.434788	12.3019	0.668833	19.3235	0.717225	20.6146
0.157619	4.40092	0.0566541	1.55321	0.283554	7.91308	0.38362	10.6387	0.573894	16.1057	0.8464	23.4482	0.199693	6.52986	0.435615	12.0088	0.669487	18.8354	0.718221	20.1049
0.161133	4.38496	0.0573932	1.55924	0.284477	7.73767	0.385981	10.4346	0.574677	15.7167	0.846814	22.8694	0.202607	6.42929	0.436465	11.7309	0.670157	18.3726	0.719242	19.6217
0.164589	4.36826	0.0578666	1.56306	0.285477	7.57295	0.388373	10.2413	0.575481	15.3476	0.847239	22.3192	0.205549	6.33533	0.437336	11.4671	0.670845	17.9334	0.72029	19.1632
0.167984	4.35078	0.0585477	1.56849	0.286413	7.43759	0.390796	10.0581	0.576304	14.997	0.847674	21.7958	0.208516	6.24738	0.438229	11.2165	0.671549	17.516	0.721363	18.7275
0.171316	4.33253	0.0592888	1.57431	0.287259	7.32787	0.393247	9.88419	0.577147	14.6634	0.848121	21.2971	0.211507	6.1649	0.439144	10.9782	0.67227	17.1188	0.722461	18.3131
0.174582	4.31349	0.0602977	1.58209	0.287994	7.24089	0.395728	9.71893	0.57801	14.3457	0.848578	20.8214	0.21452	6.0874	0.440081	10.7512	0.673007	16.7404	0.723585	17.9184
0.177779	4.29364	0.0615757	1.59172	0.288598	7.17443	0.398236	9.56175	0.578893	14.0429	0.849046	20.3673	0.217553	6.01445	0.441041	10.5348	0.673761	16.3795	0.724735	17.5422
0.180905	4.273	0.0631236	1.60305	0.289054	7.12683	0.400773	9.4121	0.579795	13.7539	0.849525	19.9333	0.220604	5.94566	0.442022	10.3284	0.674531	16.0351	0.725911	17.1831
0.183959	4.25156	0.0649429	1.61593	0.289352	7.09692	0.403337	9.26949	0.580718	13.4779	0.850015	19.5181	0.223672	5.88068	0.443027	10.1313	0.675317	15.7059	0.727112	16.8401
0.186937	4.22932	0.0670343	1.63018	0.289788	7.05465	0.405927	9.13345	0.58166	13.2141	0.850515	19.1205	0.226756	5.81921	0.444053	9.94297	0.67612	15.391	0.728338	16.5122
0.189839	4.20631	0.0691296	1.64389	0.290273	7.00968	0.408544	9.00358	0.582623	12.9616	0.851027	18.7395	0.229853	5.76096	0.445103	9.7628	0.676938	15.0897	0.72959	16.1984
0.192663	4.18254	0.071228	1.65708	0.290951	6.95009	0.411186	8.8795	0.583605	12.7198	0.85155	18.374	0.232963	5.70567	0.446175	9.59034	0.677773	14.8009	0.730867	15.8979
0.195408	4.15804	0.0733294	1.66977	0.291839	6.87726	0.413854	8.76084	0.584607	12.4881	0.852083	18.0232	0.236084	5.65311	0.447271	9.42514	0.678624	14.5239	0.732169	15.6099
0.198075	4.13284	0.0754332	1.68199	0.292957	6.79284	0.416547	8.6473	0.58563	12.2658	0.852627	17.6862	0.239215	5.60308	0.44839	9.26678	0.67949	14.2582	0.733497	15.3336
0.200662	4.10698	0.0775393	1.69377	0.294334	6.69865	0.419264	8.53856	0.586672	12.0524	0.853183	17.3622	0.242355	5.55538	0.449532	9.11488	0.680373	14.0029	0.73485	15.0684
0.20317	4.0805	0.0796471	1.70511	0.296001	6.5967	0.422006	8.43435	0.587734	11.8475	0.853749	17.0504	0.245502	5.50984	0.450698	8.96908	0.681271	13.7576	0.736228	14.8137
0.2056	4.05345	0.0817565	1.71604	0.297761	6.50095	0.424771	8.33442	0.588817	11.6505	0.854326	16.7503	0.248654	5.4663	0.451888	8.82906	0.682185	13.5217	0.737631	14.5688
0.207953	4.0259	0.0838673	1.72658	0.299616	6.41103	0.427559	8.23853	0.58992	11.461	0.854915	16.4611	0.251812	5.42461	0.453102	8.6945	0.683114	13.2946	0.739059	14.3332
0.210231	3.99789	0.0859792	1.73674	0.301565	6.32661	0.430371	8.14645	0.591043	11.2787	0.855514	16.1823	0.254973	5.38464	0.45434	8.56514	0.684059	13.0759	0.740512	14.1065
0.212436	3.96949	0.0880919	1.74655	0.303608	6.24737	0.433205	8.05799	0.592186	11.1031	0.856124	15.9134	0.258137	5.34626	0.455603	8.44069	0.685019	12.8651	0.741991	13.8882
0.21457	3.94077	0.0902053	1.75601	0.305745	6.17299	0.436062	7.97295	0.593349	10.9339	0.856746	15.6539	0.261303	5.30937	0.456891	8.32092	0.685995	12.6619	0.743494	13.6778
0.216636	3.91177	0.0923193	1.76515	0.307974	6.1032	0.43894	7.89115	0.594533	10.7708	0.857378	15.4032	0.264468	5.27386	0.458203	8.20559	0.686985	12.4658	0.745022	13.475
0.218637	3.88258	0.0944335	1.77397	0.310295	6.0377	0.44184	7.81243	0.595738	10.6135	0.858022	15.161	0.267633	5.23962	0.459542	8.0945	0.687991	12.2765	0.746574	13.2793
0.220576	3.85325	0.0965481	1.7825	0.312704	5.97623	0.444761	7.73663	0.596963	10.4617	0.858676	14.9269	0.270796	5.20657	0.460905	7.98744	0.689012	12.0936	0.748152	13.0904
0.222455	3.82385	0.0986627	1.79074	0.315199	5.91854	0.447703	7.66361	0.598209	10.3151	0.859342	14.7003	0.273957	5.17464	0.462295	7.88422	0.690048	11.9169	0.749754	12.908
0.224279	3.79444	0.100777	1.7987	0.317778	5.86437	0.450666	7.59322	0.599475	10.1735	0.860019	14.4811	0.277113	5.14374	0.463711	7.78468	0.691098	11.7461	0.751381	12.7318
0.226051	3.76506	0.102892	1.8064	0.320438	5.8135	0.453265	7.53394	0.600763	10.0366	0.860707	14.2689	0.280264	5.1138	0.465154	7.68864	0.692164	11.5808	0.753032	12.5615
0.227555	3.73954	0.105006	1.81385	0.323174	5.76569	0.455492	7.48485	0.602072	9.90433	0.861406	14.0632	0.28341	5.08475	0.466432	7.60768	0.693243	11.4208	0.754708	12.3967
0.228809	3.71787	0.10712	1.82106	0.325985	5.72073	0.457342	7.44523	0.603401	9.77636	0.862116	13.8639	0.286548	5.05653	0.467539	7.5406	0.694338	11.2659	0.756408	12.2374
0.229828	3.70002	0.109234	1.82804	0.328865	5.67843	0.45881	7.41451	0.604753	9.65255	0.862838	13.6707	0.289679	5.02909	0.468465	7.48644	0.695447	11.1159	0.758132	12.0831
0.230623	3.68596	0.111347	1.83479	0.331811	5.63859	0.459892	7.39225	0.606125	9.53269	0.863571	13.4833	0.292801	5.00238	0.469205	7.44442	0.69657	10.9705	0.75988	11.9338
0.231201	3.67565	0.11346	1.84134	0.334819	5.60103	0.460586	7.37815	0.607519	9.41664	0.864314	13.3014	0.295913	4.97633	0.469753	7.41398	0.697708	10.8295	0.761653	11.7891
0.231569	3.66907	0.115572	1.84768	0.337885	5.56557	0.461585	7.35807	0.608935	9.30422	0.86507	13.1248	0.299014	4.95091	0.470106	7.39469	0.69886	10.6927	0.76345	11.649
0.232093	3.65964	0.117683	1.85382	0.341005	5.53206	0.462674	7.33651	0.610373	9.19529	0.865836	12.9534	0.302103	4.92608	0.470615	7.36723	0.700026	10.56	0.76527	11.5131
0.232659	3.64941	0.119794	1.85978	0.344175	5.50035	0.464158	7.30761	0.611833	9.0897	0.866614	12.7868	0.30518	4.90178	0.471173	7.33773	0.701206	10.4312	0.767115	11.3813
0.233422	3.63556	0.121905	1.86556	0.347391	5.4703	0.466042	7.27175	0.613316	8.98733	0.867402	12.6249	0.308244	4.87798	0.471936	7.29819	0.702399	10.3061	0.768983	11.2534
0.234374	3.61814	0.124014	1.87116	0.35065	5.44178	0.46833	7.22937	0.614821	8.88804	0.868203	12.4674	0.311293	4.85466	0.472911	7.24911	0.703607	10.1846	0.770875	11.1294
0.235509	3.59724	0.126123	1.8766	0.353947	5.41467	0.471026	7.18099	0.616349	8.79171	0.869014	12.3143	0.314326	4.83176	0.474105	7.19111	0.704829	10.0666	0.77279	11.009
0.23682	3.57294	0.128231	1.88188	0.35728	5.38884	0.474138	7.12719	0.6179	8.69823	0.869837	12.1654	0.317344	4.80927	0.475526	7.12492	0.706064	9.95177	0.774729	10.892
0.238297	3.5454	0.130339	1.88701	0.360645	5.36421	0.477267	7.07515	0.619474	8.6075	0.870671	12.0204	0.320344	4.78715	0.477183	7.05131	0.707313	9.84015	0.776691	10.7784
0.239749	3.51823	0.132445	1.89199	0.364038	5.34067	0.480414	7.02478	0.621071	8.51941	0.871516	11.8793	0.323327	4.76537	0.478869	6.98013	0.708575	9.73158	0.778676	10.668
0.241178	3.49146	0.134551	1.89682	0.367457	5.31814	0.483579	6.97602	0.622693	8.43386	0.872373	11.7418	0.326291	4.74391	0.480584	6.91127	0.709851	9.62593	0.780685	10.5607
0.242586	3.46511	0.136656	1.90152	0.370898	5.29652	0.486761	6.92879	0.624338	8.35077	0.873241	11.608	0.329235	4.72275	0.48233	6.84466	0.71114	9.5231	0.782716	10.4564
0.243975	3.43918	0.138761	1.90609	0.374359	5.27575	0.48996	6.88304	0.626008	8.27005	0.874121	11.4775	0.33216	4.70186	0.484105	6.78021	0.712443	9.42297	0.784771	10.355
0.245348	3.4137	0.140864	1.91054	0.377837	5.25575	0.493175	6.8387	0.627703	8.19161	0.875011	11.3503	0.335064	4.68122	0.48591	6.71783	0.713759	9.32546	0.786848	10.2563
0.246706	3.38866	0.142967	1.91486	0.381329	5.23647	0.496406	6.79571	0.629423	8.11538	0.875914	11.2264	0.337945	4.66082	0.487746	6.65746	0.715088	9.23047	0.788948	10.1603
0.248051	3.36408	0.145069	1.91906	0.384833	5.21783	0.499654	6.75402	0.631168	8.04128	0.876827	11.1055	0.340805	4.64063	0.489612	6.59901	0.71643	9.1379	0.79107	10.0668
0.249384	3.33997	0.14717	1.92315	0.388347	5.19978	0.502917	6.71358	0.632938	7.96924	0.877753	10.9875	0.343642	4.62064	0.491509	6.54243	0.717786	9.04767	0.793215	9.97587
0.250708	3.31631	0.14927	1.92714	0.391868	5.18228	0.506195	6.67433	0.634735	7.8992	0.878689	10.8724	0.346455	4.60083	0.493437	6.48763	0.719154	8.95969	0.795382	9.88726
0.252023	3.29313	0.151369	1.93101	0.395395	5.16528	0.509488	6.63623	0.636322	7.83974	0.879637	10.7601	0.349244	4.58118	0.495396	6.43457	0.720536	8.8739	0.797571	9.80097
0.253331	3.2704	0.153468	1.93479	0.398925	5.14872	0.512796	6.59923	0.637691	7.79018	0.880597	10.6505	0.352009	4.5617	0.497386	6.38317	0.72193	8.79021	0.799782	9.71689
0.254633	3.24815	0.155566	1.93847	0.402456	5.13258	0.516118	6.56329	0.638835	7.74996	0.881568	10.5434	0.354748	4.54235	0.499407	6.33338	0.723337	8.70855	0.802015	9.63495
0.255931	3.22635	0.157663	1.94205	0.405987	5.11682	0.519455	6.52836	0.639746	7.71864	0.882551	10.4389	0.357462	4.52314	0.501459	6.28514	0.724757	8.62886	0.80427	9.55509
0.257224	3.20501	0.159759	1.94555	0.409516	5.10139	0.522804	6.49442	0.64042	7.69588	0.883545	10.3367	0.36015	4.50405	0.503543	6.2384	0.72619	8.55106	0.806546	9.47723
0.258514	3.18412	0.161855	1.94895	0.413042	5.08628	0.526167	6.46141	0.640854	7.68143	0.88455	10.2369	0.362811	4.48507	0.505657	6.19311	0.727636	8.47511	0.808844	9.4013
0.259803	3.16369	0.163949	1.95227	0.416563	5.07145	0.529543	6.4293	0.641479	7.66082	0.885568	10.1393	0.365445	4.4662	0.507802	6.14921	0.729095	8.40093	0.811162	9.32725
0.26109	3.14369	0.166043	1.95551	0.420077	5.05687	0.532931	6.39806	0.642163	7.63863	0.886596	10.044	0.368053	4.44743	0.509978	6.10667	0.730566	8.32847	0.813502	9.255
0.262376	3.12413	0.168137	1.95867	0.423583	5.04252	0.53633	6.36765	0.643098	7.60879	0.887637	9.95073	0.370633	4.42875	0.512185	6.06542	0.73205	8.25768	0.815863	9.18451
0.263663	3.10501	0.170229	1.96176	0.42708	5.02838	0.539742	6.33804	0.64429	7.57163	0.888689	9.85954	0.373186	4.41015	0.514421	6.02543	0.733546	8.1885	0.818245	9.11571
0.26495	3.0863	0.172321	1.96477	0.430566	5.01442	0.543164	6.3092	0.645746	7.52751	0.889753	9.77035	0.375712	4.39164	0.516688	5.98665	0.735055	8.12089	0.820647	9.04855
0.266238	3.06801	0.174412	1.9677	0.434041	5.00063	0.546597	6.2811	0.647475	7.4769	0.890828	9.68309	0.378209	4.37321	0.518985	5.94903	0.736577	8.05479	0.823069	8.98298
0.267528	3.05013	0.176502	1.97057	0.437503	4.98699	0.55004	6.25371	0.649486	7.42029	0.891915	9.59771	0.380679	4.35486	0.521311	5.91255	0.737914	7.99839	0.825512	8.91894
0.26882	3.03265	0.178592	1.97338	0.440952	4.97348	0.553492	6.227	0.651526	7.3652	0.893014	9.51414	0.383122	4.33658	0.523666	5.87716	0.739061	7.95117	0.827975	8.8564
0.270115	3.01556	0.180681	1.97611	0.444385	4.96008	0.556953	6.20094	0.653597	7.31161	0.894124	9.43235	0.385536	4.31837	0.526049	5.84281	0.740014	7.91271	0.830458	8.79531
0.271413	2.99886	0.182769	1.97879	0.447803	4.94679	0.560423	6.17551	0.655699	7.25946	0.895246	9.35226	0.387923	4.30023	0.52846	5.80947	0.740772	7.88267	0.83296	8.73561
0.272714	2.98253	0.184856	1.9814	0.451205	4.93358	0.5639	6.15068	0.657832	7.20871	0.89638	9.27385	0.390283	4.28216	0.530899	5.77711	0.74133	7.86078	0.835482	8.67728
0.274019	2.96658	0.186943	1.98396	0.454588	4.92046	0.567385	6.12643	0.659997	7.15934	0.897526	9.19705	0.392616	4.26416	0.533365	5.74569	0.741689	7.84686	0.838024	8.62026
0.275328	2.95098	0.18903	1.98646	0.457954	4.9074	0.570876	6.10274	0.662195	7.11131	0.898684	9.12182	0.394921	4.24623	0.535857	5.71518	0.742205	7.82698	0.840584	8.56452
0.276641	2.93574	0.191115	1.9889	0.4613	4.89439	0.574373	6.07957	0.664425	7.06458	0.899853	9.04813	0.3972	4.22838	0.538375	5.68553	0.742768	7.80552	0.843164	8.51001
0.277958	2.92084	0.1932	1.99129	0.464627	4.88143	0.577876	6.05691	0.666689	7.01911	0.901034	8.97591	0.399452	4.21059	0.540917	5.65672	0.743537	7.77661	0.845762	8.45672
0.27928	2.90627	0.195285	1.99363	0.467933	4.86851	0.581383	6.03474	0.668987	6.97489	0.902227	8.90515	0.401678	4.19288	0.543484	5.62872	0.744512	7.74049	0.848379	8.40459
0.280607	2.89204	0.197368	1.99592	0.471218	4.85562	0.584894	6.01303	0.671319	6.93187	0.903433	8.83579	0.403879	4.17525	0.546074	5.6015	0.745699	7.69743	0.851015	8.35359
0.281939	2.87813	0.199451	1.99816	0.474482	4.84276	0.588408	5.99176	0.673687	6.89003	0.90465	8.7678	0.406054	4.15769	0.548687	5.57502	0.747099	7.64779	0.853668	8.3037
0.283276	2.86453	0.201534	2.00035	0.477723	4.82991	0.591924	5.97092	0.67609	6.84935	0.905879	8.70114	0.408205	4.14021	0.551322	5.54927	0.748719	7.59196	0.85634	8.25487
0.284618	2.85124	0.203616	2.0025	0.480942	4.81708	0.595442	5.95048	0.67853	6.80978	0.90712	8.63578	0.410331	4.12281	0.553979	5.52419	0.75035	7.5373	0.859029	8.20709
0.285965	2.83825	0.205697	2.0046	0.484137	4.80425	0.598961	5.93043	0.681006	6.77132	0.908373	8.57168	0.412433	4.1055	0.556655	5.49979	0.751995	7.48378	0.861387	8.16627
0.287318	2.82555	0.207778	2.00666	0.487309	4.79142	0.60248	5.91075	0.68352	6.73394	0.909638	8.50881	0.414512	4.08828	0.559351	5.47601	0.753652	7.43137	0.863408	8.13207
