Sym0		Asym0		Sym1		Sym2		Asym1		Asym2	
477  Points		493  Points		477  Points		250  Points		403  Points		139  Points	
Freq (MHz)	Vgr (m/ms)	Freq (MHz)	Vgr (m/ms)	Freq (MHz)	Vgr (m/ms)	Freq (MHz)	Vgr (m/ms)	Freq (MHz)	Vgr (m/ms)	Freq (MHz)	Vgr (m/ms)
0.00335677	8.58199	4.20286e-005	0.259423	0.00100583	8.58242	0.27951	0.0934394	0.139924	0.680456	0.419271	0.116161
0.0113526	8.58072	0.000283732	0.37223	0.00900203	8.58138	0.279597	0.168031	0.140558	0.92851	0.419379	0.184432
0.019346	8.5772	0.000735638	0.593243	0.0169963	8.57844	0.279823	0.316367	0.141654	1.41764	0.419614	0.320835
0.0273352	8.57184	0.00138917	0.803238	0.024987	8.57365	0.280186	0.462378	0.143199	1.89061	0.419977	0.456824
0.0353187	8.56458	0.00223238	0.99918	0.0329723	8.56692	0.280684	0.605061	0.145177	2.34312	0.420465	0.592207
0.0432944	8.55526	0.00325104	1.17896	0.0409505	8.55822	0.281314	0.743357	0.147565	2.77198	0.42108	0.726814
0.0512605	8.54386	0.00442924	1.34134	0.0489196	8.54741	0.282069	0.876246	0.150342	3.17516	0.42182	0.860459
0.0592149	8.53021	0.00575047	1.486	0.0568777	8.53444	0.282946	1.00294	0.153482	3.55152	0.422683	0.992981
0.0671556	8.51413	0.00719824	1.61324	0.0648226	8.51912	0.283938	1.12258	0.15696	3.90082	0.42367	1.12421
0.0750801	8.49544	0.00875658	1.72388	0.0727521	8.50123	0.285038	1.23457	0.160751	4.2234	0.424778	1.25396
0.0829859	8.47395	0.0104105	1.8191	0.0806637	8.4806	0.286239	1.33844	0.16483	4.52022	0.426007	1.38213
0.0908703	8.44935	0.0121463	1.90033	0.0885548	8.45692	0.287532	1.43382	0.169174	4.79247	0.427354	1.50855
0.0987303	8.42133	0.0139516	1.96905	0.0964223	8.42993	0.288911	1.52066	0.17376	5.0415	0.428818	1.63306
0.106563	8.38946	0.0158154	2.0268	0.104263	8.39924	0.290366	1.59919	0.178568	5.26902	0.430397	1.75559
0.114363	8.35334	0.0177283	2.07499	0.112073	8.36444	0.29189	1.66989	0.183578	5.4765	0.432089	1.87593
0.122128	8.3125	0.0196819	2.1149	0.119849	8.32503	0.293477	1.73351	0.188773	5.66542	0.433892	1.99399
0.129853	8.26621	0.0216692	2.14778	0.127586	8.28039	0.295121	1.79124	0.194135	5.83739	0.435805	2.10969
0.137531	8.21383	0.023684	2.17478	0.135279	8.22995	0.296815	1.84459	0.19965	5.99367	0.437824	2.2229
0.145158	8.15456	0.0254584	2.19424	0.142922	8.17278	0.298558	1.89526	0.205304	6.13559	0.439947	2.3335
0.152726	8.08737	0.0269822	2.20824	0.150508	8.10797	0.300347	1.94541	0.211083	6.26438	0.442172	2.44149
0.160228	8.0112	0.0282491	2.21815	0.15803	8.03458	0.302183	1.99738	0.216977	6.38103	0.444496	2.54679
0.167654	7.92471	0.0292546	2.22504	0.16548	7.95132	0.304069	2.05355	0.222974	6.48652	0.446917	2.64922
0.174995	7.82652	0.0299958	2.22976	0.172846	7.85671	0.306009	2.11675	0.229064	6.58185	0.449433	2.74882
0.182238	7.71495	0.0304709	2.23248	0.18012	7.74923	0.308013	2.18976	0.235238	6.66771	0.45204	2.84555
0.189371	7.58819	0.0311549	2.23617	0.187286	7.62714	0.31009	2.27543	0.241488	6.74481	0.454735	2.93926
0.196378	7.44432	0.0318997	2.23987	0.194332	7.4885	0.312253	2.37668	0.247806	6.81381	0.457517	3.03008
0.203243	7.28125	0.0329143	2.24426	0.20124	7.33128	0.314519	2.49633	0.254185	6.87521	0.460381	3.11789
0.209946	7.09703	0.0342003	2.24926	0.207993	7.15349	0.316905	2.63706	0.260617	6.92959	0.463326	3.2027
0.216467	6.88989	0.035759	2.25425	0.21457	6.95327	0.319432	2.80125	0.267098	6.97735	0.466349	3.28456
0.222784	6.65841	0.0375913	2.25901	0.22095	6.72904	0.322125	2.99084	0.273619	7.01882	0.469447	3.3634
0.228874	6.40206	0.0396983	2.26322	0.227109	6.48002	0.325006	3.20683	0.280176	7.05436	0.472617	3.43927
0.234714	6.12125	0.0418086	2.26628	0.233024	6.20626	0.3281	3.44933	0.286764	7.08429	0.475856	3.51228
0.240281	5.81775	0.0439213	2.2684	0.238674	5.90914	0.331433	3.71703	0.293377	7.10876	0.479161	3.58242
0.245555	5.49499	0.0460355	2.26975	0.244035	5.59162	0.335026	4.00699	0.30001	7.12798	0.482531	3.64974
0.25052	5.15796	0.0481507	2.2705	0.249093	5.25819	0.3389	4.31466	0.306659	7.14216	0.485962	3.71436
0.255166	4.81298	0.0502663	2.2708	0.253834	4.91484	0.343066	4.6339	0.313319	7.15142	0.489452	3.77637
0.259488	4.46705	0.0523821	2.27069	0.258251	4.56842	0.347534	4.95772	0.319985	7.15579	0.492999	3.83587
0.26349	4.12748	0.0544975	2.27028	0.262346	4.22598	0.352304	5.27871	0.326653	7.15538	0.4966	3.89298
0.267179	3.80093	0.0566125	2.26963	0.265658	3.93595	0.357371	5.58977	0.333318	7.15016	0.500253	3.94786
0.270572	3.49273	0.0587267	2.26883	0.268298	3.69811	0.36272	5.88501	0.339977	7.14017	0.503956	4.00065
0.273688	3.20679	0.0608402	2.26791	0.270359	3.50961	0.368337	6.15976	0.346623	7.12546	0.507708	4.05158
0.276548	2.94554	0.0629527	2.26687	0.271914	3.36645	0.374198	6.41114	0.353254	7.10585	0.511506	4.10087
0.279176	2.7097	0.0650643	2.2658	0.273017	3.26453	0.380283	6.6378	0.359864	7.08129	0.515349	4.14868
0.281597	2.49892	0.0671748	2.26468	0.273706	3.20124	0.386567	6.83945	0.366449	7.05171	0.519237	4.1953
0.283833	2.31209	0.0692842	2.26353	0.274672	3.11292	0.393028	7.01701	0.373004	7.01702	0.523167	4.24107
0.285905	2.14739	0.0713927	2.26237	0.275692	3.01987	0.399643	7.1719	0.379525	6.97708	0.527139	4.28619
0.287834	2.00293	0.0734999	2.26124	0.277031	2.89879	0.406392	7.30581	0.386005	6.93171	0.531154	4.33102
0.289638	1.87661	0.0756062	2.26013	0.278647	2.75442	0.413256	7.42078	0.392441	6.88081	0.53521	4.37592
0.291331	1.76636	0.0777114	2.25902	0.280495	2.59254	0.42022	7.51867	0.398827	6.82419	0.539308	4.4212
0.292929	1.67029	0.0798157	2.25796	0.282526	2.41977	0.427266	7.60122	0.405157	6.76164	0.543448	4.46729
0.294444	1.58661	0.0819189	2.25691	0.284693	2.24263	0.434384	7.67015	0.411427	6.69308	0.547632	4.5145
0.295886	1.51382	0.0840212	2.25591	0.286705	2.08641	0.441559	7.72692	0.417629	6.61837	0.551861	4.56323
0.297264	1.45055	0.0861225	2.25494	0.288581	1.94961	0.448782	7.7728	0.423759	6.53735	0.556135	4.6138
0.298589	1.39551	0.088223	2.25401	0.290338	1.83004	0.456043	7.80888	0.429811	6.44994	0.560458	4.6666
0.299865	1.34769	0.0903226	2.25311	0.291991	1.72573	0.463333	7.83623	0.435778	6.35614	0.564831	4.72197
0.3011	1.30623	0.0924214	2.25225	0.293553	1.6349	0.470645	7.85555	0.441655	6.2559	0.569257	4.78019
0.302299	1.27027	0.0945195	2.25146	0.295037	1.55583	0.477971	7.86753	0.447435	6.14926	0.573738	4.84149
0.303467	1.23914	0.0966168	2.25066	0.296453	1.48704	0.485305	7.87281	0.453113	6.03639	0.578278	4.90599
0.304608	1.21225	0.0987133	2.24989	0.297808	1.4273	0.492641	7.87187	0.458683	5.91751	0.58288	4.97384
0.305726	1.18909	0.100809	2.24922	0.299112	1.37531	0.499973	7.86509	0.46414	5.7929	0.587546	5.04501
0.306824	1.16922	0.102904	2.24851	0.300371	1.33012	0.507297	7.85278	0.469478	5.66293	0.592281	5.11953
0.307904	1.15225	0.104999	2.24783	0.301591	1.29102	0.514606	7.83524	0.474692	5.52808	0.597086	5.19717
0.308971	1.13787	0.107093	2.24727	0.302777	1.25707	0.521897	7.81271	0.479779	5.3889	0.601965	5.27765
0.310025	1.12574	0.109187	2.24666	0.303933	1.22772	0.529164	7.78543	0.484734	5.24605	0.606921	5.3607
0.311068	1.11569	0.111279	2.24606	0.305064	1.20242	0.536404	7.75351	0.489554	5.10023	0.611954	5.44578
0.312104	1.10745	0.113372	2.24555	0.306174	1.18062	0.543612	7.71706	0.494237	4.95215	0.617068	5.53244
0.313132	1.10079	0.115464	2.24503	0.307264	1.16199	0.550784	7.67625	0.498782	4.80269	0.622263	5.62008
0.314155	1.0956	0.117555	2.24455	0.308339	1.14612	0.557916	7.63124	0.503187	4.6526	0.627541	5.70813
0.315174	1.09165	0.119646	2.24409	0.3094	1.13269	0.565004	7.58209	0.507452	4.50271	0.6329	5.79596
0.316189	1.08889	0.121737	2.24364	0.31045	1.12148	0.572044	7.52884	0.511577	4.35374	0.638341	5.88286
0.317203	1.08718	0.123827	2.2432	0.31149	1.11217	0.579033	7.4717	0.515059	4.22519	0.643862	5.96826
0.318215	1.08639	0.125917	2.2428	0.312522	1.10455	0.585967	7.41075	0.517946	4.11701	0.649462	6.0516
0.319227	1.08642	0.128006	2.24241	0.313548	1.0985	0.592842	7.34603	0.520277	4.02869	0.655138	6.1323
0.320239	1.08722	0.130095	2.24203	0.314569	1.09383	0.599655	7.27769	0.522084	3.95965	0.660889	6.20984
0.321253	1.08875	0.132184	2.2417	0.315586	1.0904	0.606403	7.20583	0.523393	3.90933	0.66671	6.28383
0.322268	1.09085	0.134272	2.24135	0.316601	1.0881	0.613083	7.13059	0.524223	3.8774	0.672598	6.35396
0.323286	1.09351	0.136361	2.24099	0.317614	1.08676	0.61969	7.05211	0.525403	3.83194	0.67855	6.41988
0.324306	1.09671	0.138448	2.2407	0.318626	1.08631	0.626224	6.97051	0.526669	3.78302	0.684561	6.48132
0.325329	1.10032	0.140536	2.24041	0.319638	1.08668	0.632679	6.8859	0.528366	3.71732	0.690627	6.53823
0.326356	1.10433	0.142623	2.24012	0.320651	1.08777	0.639055	6.79842	0.53047	3.63558	0.696744	6.59044
0.327387	1.10875	0.14471	2.23986	0.321665	1.08953	0.645347	6.70826	0.532953	3.53899	0.702907	6.63788
0.328422	1.11349	0.146797	2.23959	0.322681	1.09187	0.651555	6.61556	0.535781	3.42896	0.709113	6.6806
0.329462	1.11849	0.148883	2.2393	0.323699	1.09473	0.657675	6.52045	0.538918	3.30709	0.715356	6.71852
0.330506	1.12382	0.15097	2.23909	0.324721	1.0981	0.663705	6.42318	0.541943	3.19006	0.721632	6.75166
0.331556	1.12943	0.153056	2.23887	0.325746	1.10191	0.669644	6.32385	0.544862	3.07804	0.727937	6.78023
0.332611	1.13521	0.155141	2.23862	0.326774	1.10608	0.675489	6.22262	0.547679	2.97105	0.734266	6.80425
0.333671	1.14115	0.157227	2.23838	0.327807	1.11062	0.681239	6.11975	0.550398	2.86907	0.740616	6.82372
0.334737	1.1473	0.159312	2.23819	0.328844	1.11549	0.686892	6.01538	0.553025	2.77208	0.746982	6.83879
0.335809	1.15368	0.161398	2.23802	0.329885	1.12064	0.692448	5.90971	0.555564	2.67998	0.753359	6.8496
0.336887	1.16014	0.163483	2.23782	0.330932	1.12607	0.697904	5.80294	0.558019	2.59254	0.759745	6.85621
0.337971	1.16669	0.165568	2.23762	0.331984	1.13175	0.703261	5.69532	0.560394	2.50971	0.766135	6.85872
0.339061	1.17341	0.167652	2.23744	0.333041	1.13759	0.708517	5.58708	0.562695	2.43134	0.772526	6.8573
0.340157	1.18026	0.169737	2.23728	0.334103	1.14363	0.713672	5.47833	0.564925	2.35723	0.778913	6.85198
0.34126	1.18715	0.171821	2.23709	0.335172	1.14987	0.718725	5.36932	0.567088	2.28713	0.785293	6.84279
0.34237	1.19411	0.173905	2.23692	0.336246	1.15628	0.723677	5.26034	0.569187	2.22092	0.791664	6.82991
0.343485	1.20116	0.175989	2.2368	0.337326	1.16279	0.728527	5.1516	0.571226	2.15845	0.79802	6.81344
0.344608	1.20822	0.178073	2.23666	0.338413	1.16941	0.733276	5.04317	0.573209	2.09949	0.80436	6.79341
0.345591	1.21447	0.180157	2.23649	0.339505	1.1762	0.737333	4.94916	0.575138	2.04386	0.810679	6.76989
0.346434	1.21978	0.182241	2.23633	0.340604	1.18303	0.74073	4.86957	0.577017	1.99136	0.816975	6.74299
0.347133	1.22419	0.184324	2.23621	0.34171	1.18993	0.743499	4.80405	0.578849	1.9419	0.823244	6.71279
0.347688	1.22777	0.186408	2.23608	0.342822	1.19697	0.745661	4.75252	0.580636	1.8953	0.829483	6.67933
0.348097	1.23043	0.188491	2.23594	0.34394	1.20404	0.747236	4.71472	0.582381	1.85131	0.83569	6.64267
0.348359	1.23201	0.190574	2.23583	0.345065	1.21113	0.748238	4.69074	0.584086	1.80987	0.841861	6.60296
0.348736	1.23426	0.192657	2.23574	0.346197	1.2183	0.749668	4.65641	0.585753	1.77088	0.847994	6.56023
0.349148	1.2369	0.19474	2.23562	0.347336	1.22551	0.751211	4.61902	0.587385	1.73406	0.854085	6.51454
0.349708	1.2405	0.196823	2.23545	0.348481	1.23274	0.75329	4.56862	0.588984	1.69939	0.860133	6.46601
0.350419	1.24498	0.198906	2.23537	0.349633	1.24002	0.755887	4.50536	0.590552	1.66679	0.866134	6.41473
0.351283	1.25034	0.200988	2.23529	0.350791	1.24728	0.758979	4.42961	0.59209	1.63602	0.872086	6.3608
0.352301	1.25667	0.203071	2.23514	0.351957	1.25454	0.762539	4.34191	0.593601	1.60701	0.877987	6.30429
0.353475	1.26398	0.205153	2.23507	0.353129	1.26183	0.766538	4.24284	0.595085	1.57973	0.883834	6.24532
0.354656	1.27129	0.207236	2.23499	0.354308	1.26914	0.770445	4.14559	0.596544	1.55404	0.889624	6.18407
0.355844	1.27861	0.209318	2.23488	0.355494	1.27645	0.774263	4.05024	0.597981	1.52984	0.895357	6.12059
0.357039	1.28586	0.2114	2.23479	0.356687	1.28374	0.777993	3.95689	0.599395	1.50708	0.901029	6.05502
0.35824	1.29311	0.213482	2.23467	0.357886	1.291	0.781636	3.86565	0.600789	1.48563	0.90664	5.98753
0.359448	1.3004	0.215564	2.23461	0.359092	1.29826	0.785196	3.77653	0.602163	1.46542	0.912186	5.91824
0.360663	1.30763	0.217646	2.23455	0.360305	1.30548	0.788673	3.68959	0.603519	1.44642	0.917668	5.84734
0.361885	1.31483	0.219728	2.23444	0.361525	1.31271	0.792071	3.60489	0.604858	1.42857	0.923082	5.77489
0.363113	1.32203	0.22181	2.23435	0.362751	1.31992	0.795391	3.5224	0.606181	1.41177	0.928429	5.70112
0.364348	1.32917	0.223892	2.23427	0.363984	1.32708	0.798634	3.44216	0.607489	1.39597	0.933031	5.63595
0.36559	1.3363	0.225973	2.23423	0.365224	1.33424	0.801805	3.36413	0.608783	1.38115	0.936912	5.57971
0.366838	1.34345	0.228055	2.23413	0.366471	1.34134	0.804903	3.28839	0.610063	1.36719	0.940092	5.53283
0.368093	1.35051	0.230136	2.23405	0.367724	1.34841	0.807932	3.21488	0.61133	1.35409	0.942588	5.49555
0.369355	1.35751	0.232218	2.23401	0.368983	1.35549	0.810894	3.14353	0.612586	1.34183	0.944412	5.46807
0.370623	1.36453	0.234299	2.23395	0.370249	1.36248	0.81379	3.07437	0.613831	1.33031	0.945575	5.45037
0.371897	1.37148	0.23638	2.23385	0.371522	1.36945	0.816623	3.00739	0.615065	1.31954	0.947239	5.42491
0.373178	1.37844	0.238462	2.2338	0.372801	1.37638	0.819394	2.94251	0.616289	1.30943	0.94904	5.3972
0.374466	1.38532	0.240543	2.23374	0.374087	1.38325	0.822106	2.87971	0.617505	1.29994	0.951474	5.35927
0.37576	1.3921	0.242624	2.23367	0.375379	1.39012	0.82476	2.81895	0.618712	1.29113	0.954527	5.31124
0.37706	1.39893	0.244705	2.23363	0.376677	1.39693	0.827358	2.76014	0.619911	1.28288	0.958183	5.25297
0.378367	1.40571	0.246786	2.23354	0.377982	1.4037	0.829903	2.70331	0.621102	1.27517	0.96242	5.18445
0.379679	1.41236	0.248867	2.2335	0.379293	1.41042	0.832396	2.64835	0.622287	1.26802	0.967214	5.10578
0.380998	1.41902	0.250948	2.23344	0.38061	1.41708	0.834838	2.59523	0.623465	1.26133	0.971934	5.02707
0.382324	1.42564	0.253029	2.23337	0.381933	1.4237	0.837232	2.54395	0.624637	1.25513	0.976581	4.9485
0.383655	1.43222	0.25511	2.23334	0.383263	1.43031	0.839578	2.4944	0.625804	1.24943	0.981155	4.87029
0.384992	1.43876	0.25719	2.23329	0.384599	1.43684	0.84188	2.44659	0.626965	1.24409	0.985656	4.7924
0.386336	1.44522	0.259271	2.23322	0.38594	1.44329	0.844137	2.40038	0.628122	1.23918	0.990085	4.715
0.387685	1.4516	0.261352	2.23319	0.387288	1.44973	0.846353	2.35574	0.629274	1.23468	0.994442	4.63825
0.389041	1.45797	0.263432	2.23314	0.388642	1.45614	0.848527	2.3127	0.630423	1.23052	0.998728	4.5622
0.390402	1.46431	0.265513	2.23308	0.390001	1.46246	0.850662	2.27118	0.631567	1.22672	1.00294	4.52437
0.391769	1.47059	0.267594	2.23301	0.391367	1.46873	0.852759	2.23112	0.632709	1.22325		
0.393142	1.47681	0.269674	2.23298	0.392738	1.47498	0.854819	2.19245	0.633847	1.22016		
0.394521	1.48296	0.271754	2.23296	0.394115	1.48118	0.856844	2.15514	0.634982	1.21729		
0.395906	1.48911	0.273835	2.23291	0.395498	1.48732	0.858835	2.11916	0.636115	1.21473		
0.397296	1.49519	0.275915	2.23285	0.396887	1.49339	0.860793	2.08447	0.637246	1.21249		
0.398692	1.50115	0.277996	2.23283	0.398281	1.4994	0.862719	2.05101	0.638374	1.21049		
0.400093	1.50714	0.280076	2.23277	0.399681	1.5054	0.864615	2.01872	0.639501	1.20869		
0.4015	1.51306	0.282156	2.23271	0.401086	1.51133	0.866481	1.98763	0.640627	1.20716		
0.402913	1.51892	0.284236	2.23272	0.402497	1.51719	0.868319	1.95766	0.641751	1.20589		
0.404331	1.52474	0.286317	2.23265	0.403913	1.52305	0.870129	1.92872	0.642874	1.20481		
0.405754	1.53051	0.288397	2.23261	0.405335	1.52884	0.871913	1.90084	0.643996	1.20394		
0.407182	1.53625	0.290477	2.23259	0.406762	1.53455	0.873671	1.87394	0.645117	1.20325		
0.408616	1.5419	0.292557	2.23255	0.408194	1.54019	0.875405	1.84804	0.646238	1.2028		
0.410056	1.54747	0.294637	2.23253	0.409632	1.54583	0.877115	1.82312	0.647358	1.2025		
0.4115	1.55304	0.296717	2.23244	0.411075	1.55143	0.878802	1.79905	0.648479	1.20235		
0.41295	1.55857	0.298797	2.23243	0.412523	1.55698	0.880467	1.77584	0.649599	1.20238		
0.414404	1.56401	0.300877	2.23243	0.413976	1.56243	0.882111	1.75351	0.650719	1.20258		
0.415864	1.56944	0.302957	2.23236	0.415434	1.56782	0.883734	1.73198	0.65184	1.2029		
0.417329	1.57483	0.305036	2.23232	0.416898	1.57323	0.885338	1.71122	0.652961	1.20336		
0.418798	1.58012	0.307116	2.2323	0.418366	1.57857	0.886923	1.6912	0.654082	1.20399		
0.420273	1.58537	0.309196	2.23226	0.419839	1.58384	0.88849	1.67197	0.655204	1.20474		
0.421753	1.5906	0.311276	2.23223	0.421317	1.58908	0.890039	1.65341	0.656327	1.20563		
0.423237	1.59577	0.313356	2.23222	0.4228	1.59426	0.891571	1.63553	0.657451	1.20662		
0.424726	1.60089	0.315435	2.23218	0.424288	1.59938	0.893086	1.61835	0.658575	1.20771		
0.42622	1.60593	0.317515	2.23216	0.42578	1.60446	0.894586	1.60174	0.659701	1.20891		
0.427719	1.61098	0.319595	2.23211	0.427278	1.6095	0.896071	1.58575	0.660828	1.2102		
0.429222	1.61596	0.321674	2.23209	0.428779	1.6145	0.897541	1.57039	0.661956	1.21166		
0.43073	1.62087	0.323754	2.23207	0.430286	1.61942	0.898997	1.5556	0.663086	1.21315		
0.432242	1.62578	0.325834	2.23203	0.431797	1.6243	0.90044	1.54133	0.664217	1.21471		
0.433759	1.63061	0.327913	2.23201	0.433313	1.62919	0.901869	1.5276	0.665349	1.21644		
0.435281	1.63537	0.329993	2.23196	0.434833	1.63398	0.903286	1.5144	0.666484	1.21822		
0.436807	1.64009	0.332072	2.23194	0.436358	1.63872	0.904691	1.50164	0.667619	1.22002		
0.438337	1.64484	0.334152	2.23193	0.437887	1.64347	0.906084	1.48941	0.668757	1.22195		
0.439872	1.64951	0.336231	2.23192	0.43942	1.64812	0.907466	1.47765	0.669896	1.22394		
0.441411	1.65409	0.338311	2.23188	0.440958	1.65275	0.908838	1.46631	0.671038	1.226		
0.442954	1.65864	0.34039	2.23183	0.4425	1.65733	0.910199	1.45541	0.672181	1.22812		
0.444501	1.66316	0.342469	2.23183	0.444046	1.66182	0.91155	1.44494	0.673326	1.23028		
0.446053	1.66765	0.344549	2.2318	0.445596	1.66634	0.912891	1.43484	0.674473	1.23254		
0.447609	1.67209	0.346628	2.23179	0.447151	1.67079	0.914223	1.42513	0.675623	1.23484		
0.449169	1.67647	0.348707	2.23178	0.44871	1.67518	0.915547	1.41585	0.676774	1.23719		
0.450733	1.68082	0.350787	2.23174	0.450272	1.67954	0.916862	1.40689	0.677928	1.23962		
0.452301	1.68512	0.352866	2.23172	0.451839	1.68387	0.918168	1.39827	0.679084	1.24204		
0.453873	1.6894	0.354945	2.23167	0.45341	1.68817	0.919467	1.39	0.680243	1.24453		
0.455449	1.69362	0.357025	2.23165	0.454985	1.69236	0.920759	1.38202	0.681403	1.24709		
0.457029	1.69778	0.359104	2.23164	0.456564	1.69655	0.922043	1.37441	0.682566	1.24969		
0.458612	1.70192	0.361183	2.23163	0.458146	1.70073	0.92332	1.36712	0.683732	1.25231		
0.4602	1.70603	0.363262	2.23163	0.459733	1.70483	0.92459	1.36007	0.6849	1.25498		
0.461791	1.71011	0.365341	2.23159	0.461323	1.7089	0.925854	1.35336	0.68607	1.2577		
0.463386	1.71412	0.36742	2.23153	0.462917	1.71295	0.927112	1.3469	0.687243	1.26042		
0.464985	1.7181	0.3695	2.23154	0.464515	1.71695	0.928364	1.3407	0.688419	1.26317		
0.466588	1.72204	0.371579	2.23155	0.466116	1.72089	0.92961	1.33478	0.689597	1.26597		
0.468194	1.72594	0.373658	2.23147	0.467722	1.7248	0.930851	1.32907	0.690778	1.2688		
0.469804	1.72984	0.375737	2.23148	0.46933	1.7287	0.932087	1.32365	0.691962	1.27168		
0.471418	1.73365	0.377816	2.23148	0.470943	1.73252	0.933317	1.31845	0.693148	1.27455		
0.473035	1.73743	0.379895	2.23144	0.472559	1.73633	0.934543	1.31344	0.694337	1.27745		
0.474655	1.74118	0.381974	2.23142	0.474178	1.7401	0.935765	1.3087	0.695528	1.2804		
0.476279	1.74489	0.384053	2.23141	0.475801	1.74382	0.936982	1.30416	0.696722	1.28334		
0.477907	1.74862	0.386132	2.23137	0.477428	1.74751	0.938195	1.29981	0.697919	1.28631		
0.479537	1.75227	0.388211	2.23135	0.479058	1.75115	0.939404	1.29566	0.699119	1.2893		
0.481172	1.75582	0.39029	2.23134	0.480691	1.7548	0.940609	1.29171	0.700322	1.29233		
0.482809	1.75943	0.392369	2.23134	0.482327	1.75838	0.941811	1.28794	0.701527	1.29535		
0.48445	1.76299	0.394448	2.23133	0.483967	1.76193	0.943009	1.28434	0.702736	1.29839		
0.486094	1.76645	0.396527	2.2313	0.485611	1.76546	0.944204	1.28096	0.703947	1.30146		
0.487742	1.76994	0.398605	2.23128	0.487257	1.76892	0.945396	1.27774	0.705161	1.30452		
0.489392	1.77341	0.400684	2.23127	0.488907	1.77236	0.946585	1.27466	0.706378	1.30763		
