Sym0		Asym0		Sym1		Sym2		Asym1	
474  Points		490  Points		474  Points		224  Points		396  Points	
Freq (MHz)	Vph (m/ms)	Freq (MHz)	Vph (m/ms)	Freq (MHz)	Vph (m/ms)	Freq (MHz)	Vph (m/ms)	Freq (MHz)	Vph (m/ms)
0.00214832	9.60936	0.000660192	0.301673	0.00798507	9.60907	0.27951	2793.13	0.139845	269.744
0.0111007	9.60882	0.0013267	0.425208	0.0169361	9.60809	0.27963	271.021	0.140464	96.8631
0.0200505	9.60754	0.00220392	0.543932	0.0258831	9.60632	0.279948	142.579	0.14166	59.4755
0.0289958	9.60554	0.00327353	0.65687	0.0348242	9.60381	0.280461	96.8725	0.143416	43.2821
0.0379342	9.60276	0.00451542	0.763356	0.0437571	9.60054	0.281165	73.4715	0.145708	34.323
0.0468637	9.5992	0.00590878	0.862984	0.0526794	9.59645	0.282053	59.273	0.148508	28.6866
0.0557818	9.59483	0.00743322	0.955598	0.0615887	9.59152	0.283119	49.7552	0.151783	24.8474
0.064686	9.58961	0.00906945	1.04123	0.0704825	9.58572	0.284354	42.9413	0.155499	22.087
0.0735736	9.58349	0.0107999	1.12009	0.0793577	9.579	0.285748	37.8292	0.159622	20.0229
0.0824417	9.57643	0.0126086	1.19245	0.0882113	9.57128	0.287289	33.8571	0.164118	18.4326
0.0912869	9.56834	0.0144822	1.25873	0.0970396	9.56249	0.288964	30.6853	0.168953	17.1781
0.100106	9.55918	0.0164085	1.31932	0.105839	9.55256	0.29076	28.0962	0.174096	16.1693
0.108894	9.54882	0.0183777	1.37467	0.114605	9.54139	0.292663	25.9444	0.17952	15.3452
0.117647	9.53719	0.0203813	1.42522	0.123332	9.52886	0.294659	24.1284	0.185196	14.6626
0.12636	9.52414	0.0221498	1.46567	0.132015	9.51482	0.296733	22.5759	0.1911	14.0906
0.135026	9.50955	0.023671	1.49774	0.140648	9.49913	0.298873	21.2336	0.197209	13.6064
0.143639	9.49325	0.0249367	1.52268	0.149222	9.4816	0.301068	20.0616	0.203504	13.1926
0.152192	9.47503	0.0259419	1.54147	0.15773	9.46201	0.303307	19.0294	0.209965	12.8362
0.160673	9.45467	0.0266831	1.55477	0.16616	9.44013	0.305585	18.1135	0.216576	12.5269
0.169074	9.43192	0.0271583	1.56306	0.174502	9.41565	0.3079	17.2955	0.223321	12.2565
0.177382	9.40647	0.0278426	1.5747	0.182741	9.38825	0.310253	16.561	0.230187	12.0187
0.185582	9.37796	0.0285877	1.58698	0.190862	9.35754	0.312652	15.8983	0.23716	11.8084
0.193657	9.34599	0.0296031	1.60307	0.198845	9.32307	0.315106	15.2984	0.244229	11.6212
0.201587	9.3101	0.0308902	1.62248	0.206669	9.28435	0.317634	14.7538	0.251383	11.4539
0.209351	9.26977	0.0324503	1.64464	0.21431	9.24082	0.320258	14.2585	0.258613	11.3035
0.216921	9.22443	0.0342846	1.66893	0.221739	9.19187	0.323002	13.808	0.26591	11.1676
0.224269	9.17345	0.0363935	1.69473	0.228925	9.13688	0.325899	13.3982	0.273264	11.0443
0.231363	9.1162	0.0385055	1.71852	0.235835	9.07519	0.328985	13.0261	0.280669	10.932
0.238169	9.05204	0.0406196	1.7405	0.242434	9.00623	0.332295	12.6891	0.288117	10.8291
0.244651	8.98043	0.0427348	1.76083	0.248688	8.9295	0.33587	12.3849	0.295601	10.7344
0.250778	8.90091	0.0448504	1.77969	0.254567	8.8447	0.339747	12.1118	0.303114	10.647
0.25652	8.81328	0.0469662	1.7972	0.260046	8.75178	0.34396	11.8678	0.31065	10.566
0.261857	8.71757	0.0490816	1.81349	0.265111	8.65097	0.348534	11.6511	0.318203	10.4904
0.266775	8.61413	0.0511964	1.82868	0.269757	8.54285	0.353487	11.4597	0.325767	10.4198
0.271277	8.50365	0.0533104	1.84286	0.273991	8.42826	0.358823	11.2917	0.333337	10.3533
0.275371	8.38706	0.0554234	1.85612	0.277832	8.30829	0.364537	11.1447	0.340905	10.2906
0.279081	8.26549	0.0575353	1.86855	0.281305	8.18414	0.370609	11.0166	0.348468	10.2312
0.282434	8.14018	0.0596461	1.88021	0.284444	8.05704	0.377015	10.905	0.356018	10.1745
0.285463	8.01234	0.0617557	1.89116	0.287281	7.92818	0.383725	10.8078	0.363551	10.1203
0.288204	7.88312	0.0638641	1.90148	0.289852	7.79863	0.390703	10.723	0.371059	10.0682
0.290691	7.75354	0.0659714	1.9112	0.291902	7.68588	0.397919	10.6487	0.378538	10.0179
0.292956	7.62449	0.0680775	1.92038	0.293526	7.59031	0.405338	10.5834	0.38598	9.96903
0.295029	7.49666	0.0701825	1.92906	0.294791	7.51185	0.412932	10.5256	0.39338	9.92139
0.296937	7.37065	0.0722865	1.93728	0.295746	7.45028	0.420675	10.4742	0.40073	9.87474
0.298703	7.24687	0.0743893	1.94507	0.296425	7.4053	0.428543	10.4282	0.408024	9.82881
0.300346	7.12568	0.0764912	1.95247	0.296849	7.37665	0.436515	10.3867	0.415254	9.7834
0.301885	7.00729	0.0785921	1.95949	0.297446	7.33568	0.444573	10.349	0.422412	9.7383
0.303334	6.89187	0.080692	1.96617	0.298078	7.29144	0.452702	10.3145	0.429492	9.69331
0.304705	6.77953	0.0827912	1.97254	0.298912	7.23178	0.460887	10.2827	0.436485	9.64824
0.306011	6.6703	0.0848894	1.97861	0.299926	7.15721	0.469117	10.2532	0.443381	9.60292
0.307259	6.5642	0.0869868	1.98441	0.301098	7.06843	0.47738	10.2256	0.450174	9.55719
0.308459	6.46122	0.0890836	1.98994	0.302404	6.96632	0.485668	10.1996	0.456853	9.51087
0.309617	6.36133	0.0911796	1.99524	0.303825	6.85198	0.493971	10.1749	0.463411	9.46383
0.310739	6.26446	0.0932749	2.00031	0.305172	6.74072	0.502282	10.1512	0.469838	9.41592
0.311829	6.17055	0.0953696	2.00516	0.306456	6.6326	0.510593	10.1285	0.476126	9.36703
0.312894	6.07953	0.0974636	2.00982	0.307687	6.5276	0.518898	10.1064	0.482266	9.31706
0.313936	5.99132	0.0995571	2.01429	0.308871	6.42572	0.52719	10.0849	0.488251	9.2659
0.314959	5.90583	0.10165	2.01858	0.310015	6.32689	0.535462	10.0638	0.494073	9.21348
0.315966	5.82298	0.103742	2.02271	0.311126	6.23107	0.54371	10.043	0.499726	9.15976
0.316959	5.74268	0.105834	2.02668	0.312207	6.13819	0.551928	10.0223	0.505205	9.10469
0.317941	5.66484	0.107926	2.03051	0.313263	6.04817	0.560109	10.0016	0.510505	9.04827
0.318914	5.58939	0.110017	2.03419	0.314298	5.96092	0.56825	9.98094	0.515622	8.99051
0.319879	5.51623	0.112107	2.03774	0.315315	5.87637	0.576343	9.96011	0.520556	8.93144
0.320838	5.44529	0.114198	2.04117	0.316317	5.79443	0.584385	9.93906	0.525305	8.87111
0.321793	5.37647	0.116287	2.04447	0.317306	5.71501	0.59237	9.91771	0.529869	8.80958
0.322744	5.30972	0.118377	2.04767	0.318284	5.63802	0.600294	9.896	0.534252	8.74695
0.323694	5.24494	0.120466	2.05075	0.319254	5.56338	0.60815	9.87386	0.538455	8.68332
0.324642	5.18208	0.122555	2.05374	0.320217	5.49101	0.615935	9.85123	0.542483	8.61878
0.32559	5.12105	0.124643	2.05663	0.321175	5.42083	0.623643	9.82806	0.546341	8.55346
0.326539	5.06179	0.126732	2.05942	0.322128	5.35275	0.63127	9.8043	0.550035	8.48748
0.327489	5.00424	0.128819	2.06213	0.323079	5.2867	0.638811	9.77991	0.553569	8.42096
0.32844	4.94834	0.130907	2.06475	0.324028	5.2226	0.646263	9.75484	0.556952	8.35402
0.329395	4.89402	0.132994	2.0673	0.324976	5.16039	0.65362	9.72907	0.56019	8.28678
0.330352	4.84122	0.135082	2.06977	0.325924	5.09999	0.660878	9.70256	0.56329	8.21936
0.331313	4.7899	0.137169	2.07216	0.326873	5.04134	0.668034	9.67528	0.56626	8.15186
0.332277	4.74	0.139255	2.07449	0.327823	4.98438	0.675085	9.64721	0.569105	8.08439
0.333246	4.69147	0.141342	2.07674	0.328776	4.92904	0.682025	9.61833	0.571489	8.02569
0.334219	4.64425	0.143428	2.07894	0.329731	4.87526	0.688853	9.58863	0.573455	7.97577
0.335198	4.59832	0.145514	2.08107	0.33069	4.82299	0.695564	9.55809	0.575036	7.93461
0.336181	4.55361	0.1476	2.08314	0.331652	4.77218	0.702157	9.52671	0.576259	7.90213
0.33717	4.51009	0.149686	2.08516	0.332618	4.72276	0.708627	9.49449	0.577143	7.87831
0.338165	4.46771	0.151771	2.08713	0.333588	4.6747	0.714974	9.46141	0.577702	7.86309
0.339166	4.42645	0.153856	2.08904	0.334563	4.62794	0.721195	9.4275	0.578498	7.84124
0.340172	4.38625	0.155942	2.0909	0.335543	4.58244	0.727287	9.39274	0.579351	7.81755
0.341185	4.34708	0.158027	2.09271	0.336529	4.53816	0.73325	9.35717	0.580492	7.78541
0.342204	4.30892	0.160112	2.09448	0.33752	4.49504	0.739083	9.32078	0.581906	7.74492
0.343229	4.27171	0.162196	2.0962	0.338517	4.45306	0.744784	9.28359	0.583573	7.69621
0.344262	4.23545	0.164281	2.09788	0.339519	4.41218	0.750353	9.24563	0.585471	7.63945
0.3453	4.20008	0.166365	2.09952	0.340528	4.37235	0.755789	9.20692	0.587578	7.57485
0.346346	4.16559	0.16845	2.10112	0.341543	4.33354	0.761093	9.16749	0.589613	7.51087
0.347398	4.13195	0.170534	2.10268	0.342564	4.29571	0.766266	9.12736	0.591581	7.44755
0.348458	4.09913	0.172618	2.10421	0.343592	4.25885	0.771307	9.08657	0.593486	7.38491
0.349524	4.06709	0.174702	2.1057	0.344626	4.2229	0.776219	9.04515	0.595332	7.32299
0.350597	4.03583	0.176786	2.10715	0.345668	4.18785	0.781002	9.00315	0.597123	7.26179
0.351678	4.00531	0.17887	2.10857	0.346716	4.15366	0.785659	8.96059	0.598863	7.20135
0.352765	3.97551	0.180953	2.10996	0.34777	4.12031	0.79019	8.91751	0.600554	7.14168
0.353859	3.9464	0.183037	2.11132	0.348832	4.08776	0.794599	8.87396	0.6022	7.08278
0.354961	3.91798	0.18512	2.11265	0.349901	4.056	0.798888	8.82998	0.603804	7.02467
0.35607	3.89021	0.187204	2.11395	0.350977	4.025	0.803059	8.78561	0.605369	6.96735
0.357186	3.86308	0.189287	2.11522	0.352059	3.99474	0.807115	8.74088	0.606896	6.91082
0.358164	3.83994	0.19137	2.11646	0.353149	3.96518	0.811058	8.69585	0.608389	6.8551
0.359002	3.82058	0.193453	2.11768	0.354246	3.93632	0.814892	8.65054	0.60985	6.80017
0.359698	3.80481	0.195537	2.11887	0.35535	3.90813	0.81862	8.60501	0.611281	6.74603
0.360251	3.7925	0.19762	2.12004	0.356462	3.88059	0.822244	8.55928	0.612683	6.69269
0.360658	3.78354	0.199702	2.12118	0.35758	3.85368	0.825769	8.5134	0.614059	6.64014
0.360919	3.77784	0.201785	2.1223	0.358706	3.82738	0.829196	8.4674	0.61541	6.58837
0.361295	3.76969	0.203868	2.1234	0.359839	3.80167	0.832106	8.42724	0.616737	6.53738
0.361705	3.76091	0.205951	2.12448	0.360979	3.77654	0.834532	8.39298	0.618043	6.48716
0.362263	3.74907	0.208033	2.12553	0.362126	3.75197	0.8365	8.36463	0.619329	6.4377
0.362972	3.73429	0.210116	2.12657	0.36328	3.72794	0.838034	8.34222	0.620596	6.38899
0.363832	3.71668	0.212198	2.12758	0.364441	3.70444	0.839148	8.32574	0.621845	6.34103
0.364847	3.69638	0.214281	2.12857	0.365609	3.68145	0.839856	8.31519	0.623077	6.2938
0.366018	3.67357	0.216363	2.12955	0.366785	3.65896	0.840865	8.30003	0.624294	6.2473
0.367196	3.65125	0.218445	2.13051	0.367967	3.63696	0.841953	8.28355	0.625496	6.20151
0.36838	3.62941	0.220528	2.13145	0.369157	3.61542	0.843415	8.26115	0.626685	6.15643
0.369572	3.60803	0.22261	2.13237	0.370353	3.59434	0.845237	8.23285	0.627862	6.11204
0.370771	3.58711	0.224692	2.13328	0.371557	3.5737	0.8474	8.19865	0.629026	6.06834
0.371977	3.56662	0.226774	2.13417	0.372767	3.5535	0.849885	8.1586	0.63018	6.02531
0.37319	3.54657	0.228856	2.13504	0.373984	3.53372	0.852667	8.11275	0.631323	5.98294
0.374409	3.52693	0.230938	2.1359	0.375208	3.51435	0.855377	8.06703	0.632457	5.94123
0.375636	3.5077	0.23302	2.13674	0.376439	3.49537	0.85802	8.02146	0.633582	5.90016
0.376869	3.48886	0.235102	2.13757	0.377677	3.47679	0.860596	7.97608	0.634698	5.85972
0.378109	3.47041	0.237184	2.13838	0.378921	3.45858	0.863109	7.93089	0.635807	5.81989
0.379356	3.45233	0.239265	2.13918	0.380172	3.44074	0.865562	7.88591	0.63691	5.78068
0.380609	3.43461	0.241347	2.13997	0.38143	3.42325	0.867956	7.84116	0.638005	5.74207
0.381869	3.41725	0.243429	2.14074	0.382694	3.40612	0.870293	7.79665	0.639095	5.70405
0.383136	3.40023	0.24551	2.1415	0.383965	3.38932	0.872577	7.75241	0.640179	5.6666
0.384409	3.38356	0.247592	2.14225	0.385242	3.37286	0.874809	7.70843	0.641258	5.62972
0.385688	3.36721	0.249674	2.14298	0.386526	3.35672	0.876991	7.66473	0.642332	5.5934
0.386974	3.35118	0.251755	2.14371	0.387816	3.34089	0.879126	7.62133	0.643402	5.55763
0.388267	3.33546	0.253837	2.14442	0.389113	3.32537	0.881215	7.57823	0.644468	5.52239
0.389566	3.32004	0.255918	2.14512	0.390416	3.31015	0.883259	7.53543	0.645531	5.48769
0.390871	3.30492	0.257999	2.14581	0.391725	3.29522	0.885262	7.49296	0.64659	5.4535
0.392182	3.29009	0.260081	2.14649	0.393041	3.28058	0.887224	7.45081	0.647646	5.41982
0.3935	3.27554	0.262162	2.14715	0.394362	3.26621	0.889147	7.40899	0.648701	5.38664
0.394824	3.26127	0.264243	2.14781	0.39569	3.25211	0.891034	7.36751	0.649752	5.35396
0.396154	3.24727	0.266325	2.14846	0.397024	3.23828	0.892884	7.32637	0.650802	5.32175
0.39749	3.23352	0.268406	2.14909	0.398364	3.2247	0.8947	7.28558	0.65185	5.29002
0.398832	3.22003	0.270487	2.14972	0.39971	3.21137	0.896483	7.24513	0.652897	5.25875
0.40018	3.2068	0.272568	2.15034	0.401062	3.19829	0.898235	7.20503	0.653942	5.22794
0.401534	3.1938	0.27465	2.15095	0.40242	3.18546	0.899956	7.16529	0.654987	5.19758
0.402893	3.18104	0.276731	2.15155	0.403783	3.17285	0.901649	7.12591	0.65603	5.16765
0.404259	3.16852	0.278812	2.15214	0.405153	3.16047	0.903313	7.08688	0.657074	5.13816
0.40563	3.15622	0.280893	2.15272	0.406528	3.14832	0.904951	7.04821	0.658116	5.10909
0.407008	3.14414	0.282974	2.15329	0.407908	3.13638	0.906564	7.0099	0.659159	5.08044
0.40839	3.13228	0.285055	2.15386	0.409295	3.12466	0.908152	6.97195	0.660201	5.05219
0.409779	3.12063	0.287136	2.15441	0.410687	3.11314	0.909716	6.93436	0.661244	5.02435
0.411173	3.10918	0.289217	2.15496	0.412085	3.10183	0.911258	6.89713	0.662287	4.9969
0.412573	3.09794	0.291298	2.1555	0.413488	3.09072	0.912778	6.86026	0.66333	4.96983
0.413978	3.08689	0.293379	2.15604	0.414896	3.0798	0.914277	6.82374	0.664374	4.94315
0.415388	3.07604	0.295459	2.15656	0.41631	3.06907	0.915756	6.78759	0.665419	4.91684
0.416804	3.06538	0.29754	2.15708	0.41773	3.05852	0.917216	6.75178	0.666465	4.8909
0.418225	3.0549	0.299621	2.1576	0.419154	3.04816	0.918658	6.71633	0.667511	4.86531
0.419652	3.0446	0.301702	2.1581	0.420584	3.03798	0.920083	6.68124	0.668559	4.84008
0.421083	3.03447	0.303783	2.1586	0.42202	3.02796	0.92149	6.64649	0.669608	4.8152
0.42252	3.02452	0.305863	2.15909	0.42346	3.01812	0.922882	6.61209	0.670658	4.79065
0.423962	3.01474	0.307944	2.15957	0.424905	3.00845	0.924257	6.57804	0.67171	4.76644
0.42541	3.00512	0.310025	2.16005	0.426356	2.99893	0.925619	6.54433	0.672764	4.74256
0.426862	2.99566	0.312106	2.16052	0.427811	2.98958	0.926965	6.51096	0.673818	4.719
0.428319	2.98636	0.314186	2.16099	0.429272	2.98038	0.928298	6.47794	0.674875	4.69576
0.429781	2.97722	0.316267	2.16145	0.430737	2.97134	0.929619	6.44524	0.675933	4.67284
0.431248	2.96822	0.318348	2.1619	0.432208	2.96244	0.930926	6.41288	0.676994	4.65021
0.43272	2.95938	0.320428	2.16235	0.433683	2.95369	0.932222	6.38086	0.678056	4.62789
0.434197	2.95067	0.322509	2.16279	0.435163	2.94508	0.933506	6.34915	0.67912	4.60587
0.435679	2.94212	0.324589	2.16323	0.436647	2.93661	0.934779	6.31778	0.680187	4.58413
0.437165	2.93369	0.32667	2.16366	0.438137	2.92828	0.936041	6.28672	0.681255	4.56269
0.438656	2.92541	0.32875	2.16409	0.439631	2.92008	0.937294	6.25599	0.682326	4.54152
0.440152	2.91726	0.330831	2.16451	0.44113	2.91201	0.938536	6.22557	0.683399	4.52063
0.441652	2.90924	0.332911	2.16492	0.442633	2.90408	0.93977	6.19546	0.684475	4.50001
0.443157	2.90134	0.334992	2.16533	0.444141	2.89626	0.940994	6.16566	0.685552	4.47965
0.444667	2.89358	0.337072	2.16574	0.445653	2.88858	0.94221	6.13617	0.686633	4.45956
0.44618	2.88593	0.339153	2.16614	0.44717	2.88101	0.943418	6.10698	0.687716	4.43973
0.447699	2.8784	0.341233	2.16653	0.448691	2.87356	0.944619	6.07809	0.688801	4.42015
0.449221	2.871	0.343314	2.16692	0.450216	2.86623	0.945811	6.0495	0.689889	4.40082
0.450748	2.8637	0.345394	2.16731	0.451746	2.85901	0.946997	6.0212	0.690979	4.38173
0.45228	2.85652	0.347474	2.16769	0.45328	2.8519	0.948176	5.9932	0.692072	4.36289
0.453815	2.84945	0.349555	2.16807	0.454819	2.8449	0.949348	5.96547	0.693168	4.34428
0.455355	2.84249	0.351635	2.16844	0.456361	2.83801	0.950514	5.93804	0.694267	4.32591
0.456899	2.83564	0.353715	2.16881	0.457908	2.83123	0.951675	5.91088	0.695369	4.30776
0.458447	2.82889	0.355796	2.16917	0.459459	2.82455	0.952829	5.88401	0.696473	4.28984
0.459999	2.82224	0.357876	2.16953	0.461014	2.81796	0.953979	5.8574	0.69758	4.27215
0.461556	2.8157	0.359956	2.16988	0.462573	2.81148	0.955123	5.83107	0.69869	4.25467
0.463116	2.80925	0.362037	2.17024	0.464135	2.8051	0.956262	5.80501	0.699803	4.2374
0.46468	2.8029	0.364117	2.17058	0.465702	2.79881	0.957397	5.77921	0.700919	4.22035
0.466249	2.79664	0.366197	2.17093	0.467273	2.79261	0.958527	5.75367	0.702037	4.20351
0.467821	2.79048	0.368277	2.17127	0.468848	2.78651	0.959653	5.72839	0.703159	4.18687
0.469397	2.7844	0.370357	2.1716	0.470427	2.78049	0.960775	5.70337	0.704284	4.17043
0.470977	2.77842	0.372438	2.17193	0.472009	2.77456	0.961893	5.6786	0.705411	4.15418
0.472561	2.77252	0.374518	2.17226	0.473595	2.76873	0.963008	5.65408	0.706542	4.13814
0.474148	2.76671	0.376598	2.17259	0.475185	2.76297	0.964119	5.62981	0.707676	4.12228
0.475739	2.76099	0.378678	2.17291	0.476779	2.7573	0.965227	5.60579	0.708813	4.10662
0.477334	2.75534	0.380758	2.17323	0.478376	2.75171	0.966332	5.582	0.709953	4.09114
0.478933	2.74978	0.382838	2.17354	0.479977	2.7462	0.967435	5.55845	0.711096	4.07584
0.480535	2.7443	0.384918	2.17385	0.481581	2.74077	0.968534	5.53514	0.712242	4.06073
0.482141	2.7389	0.386999	2.17416	0.483189	2.73542	0.969631	5.51206	0.713391	4.04579
0.48375	2.73357	0.389079	2.17446	0.484801	2.73014	0.970726	5.48921	0.714544	4.03103
0.485363	2.72832	0.391159	2.17476	0.486416	2.72494	0.971818	5.46658	0.715699	4.01643
0.486979	2.72315	0.393239	2.17506	0.488035	2.71981	0.972908	5.44418	0.716858	4.00201
0.488599	2.71804	0.395319	2.17536	0.489657	2.71475	0.973997	5.42201	0.71802	3.98776
0.490222	2.71301	0.397399	2.17565	0.491282	2.70977	0.975083	5.40005	0.719185	3.97367
0.491848	2.70805	0.399479	2.17594	0.492911	2.70485	0.976168	5.3783	0.720353	3.95974
0.493478	2.70316	0.401559	2.17622	0.494543	2.7	0.977251	5.35677	0.721524	3.94597
0.495112	2.69833	0.403639	2.1765	0.496178	2.69522	0.978333	5.33545	0.722699	3.93235
0.496748	2.69357	0.405719	2.17678	0.497817	2.69051	0.979413	5.31434	0.723877	3.91889
0.498388	2.68888	0.407799	2.17706	0.499459	2.68586	0.980492	5.29344	0.725058	3.90559
0.500031	2.68425	0.409879	2.17734	0.501104	2.68127	0.981571	5.27274	0.726242	3.89243
0.501677	2.67969	0.411959	2.17761	0.502752	2.67674	0.982648	5.25224	0.727429	3.87942
0.503326	2.67518	0.414039	2.17788	0.504403	2.67228	0.983724	5.23194	0.72862	3.86656
0.504979	2.67074	0.416119	2.17814	0.506058	2.66788	0.984799	5.21183	0.729814	3.85384
0.506634	2.66636	0.418199	2.17841	0.507715	2.66353	0.985874	5.19192	0.731011	3.84126
0.508293	2.66204	0.420279	2.17867	0.509376	2.65925	0.986948	5.1722	0.732211	3.82883
0.509955	2.65777	0.422359	2.17892	0.51104	2.65502	0.988022	5.15266	0.733414	3.81652
0.51162	2.65356	0.424438	2.17918	0.512706	2.65085	0.989095	5.13332	0.734621	3.80436
0.513287	2.64941	0.426518	2.17943	0.514376	2.64673	0.990168	5.11416	0.735831	3.79233
0.514958	2.64531	0.428598	2.17968	0.516049	2.64267	0.99124	5.09518	0.737044	3.78043
0.516632	2.64127	0.430678	2.17993	0.517724	2.63866	0.992313	5.07638	0.73826	3.76865
0.518308	2.63727	0.432758	2.18018	0.519403	2.6347	0.993385	5.05776	0.73948	3.75701
0.519987	2.63334	0.434838	2.18042	0.521084	2.6308	0.994457	5.03931	0.740702	3.74549
0.52167	2.62945	0.436918	2.18066	0.522768	2.62694	0.995529	5.02104	0.741928	3.7341
0.523355	2.62561	0.438997	2.1809	0.524455	2.62314	0.996602	5.00294	0.743157	3.72283
0.525043	2.62182	0.441077	2.18114	0.526145	2.61938	0.997674	4.98501	0.74439	3.71168
0.526733	2.61809	0.443157	2.18137	0.527837	2.61568	0.998747	4.96724	0.745625	3.70065
0.528427	2.6144	0.445237	2.18161	0.529532	2.61202	0.99982	4.94964	0.746864	3.68973
0.530123	2.61075	0.447317	2.18184	0.53123	2.6084	1.00089	4.93221	0.748106	3.67894
0.531822	2.60716	0.449397	2.18206	0.532931	2.60484			0.749351	3.66825
0.533523	2.60361	0.451476	2.18229	0.534634	2.60132			0.750599	3.65768
0.535227	2.6001	0.453556	2.18251	0.536339	2.59784			0.751851	3.64722
0.536934	2.59664	0.455636	2.18274	0.538048	2.59441			0.753105	3.63687
0.538643	2.59322	0.457716	2.18296	0.539759	2.59101			0.754363	3.62663
0.540355	2.58985	0.459795	2.18317	0.541472	2.58767			0.755624	3.61649
0.542069	2.58651	0.461875	2.18339	0.543188	2.58436			0.756888	3.60646
0.543786	2.58322	0.463955	2.1836	0.544907	2.5811			0.758155	3.59653
0.545506	2.57997	0.466034	2.18382	0.546628	2.57787			0.759426	3.5867
0.547228	2.57676	0.468114	2.18403	0.548352	2.57469			0.760699	3.57698
0.548952	2.57359	0.470194	2.18423	0.550078	2.57154			0.761976	3.56735
0.550679	2.57046	0.472274	2.18444	0.551806	2.56843			0.763256	3.55782
0.552408	2.56736	0.474353	2.18465	0.553537	2.56537			0.764539	3.54839
