Sym0		Asym0		Sym1		Sym2		Sym3		Sym4		Asym1		Asym3		Asym4	
484  Points		494  Points		484  Points		303  Points		159  Points		145  Points		421  Points		186  Points		144  Points	
Freq (MHz)	Vph (m/ms)	Freq (MHz)	Vph (m/ms)	Freq (MHz)	Vph (m/ms)	Freq (MHz)	Vph (m/ms)	Freq (MHz)	Vph (m/ms)	Freq (MHz)	Vph (m/ms)	Freq (MHz)	Vph (m/ms)	Freq (MHz)	Vph (m/ms)	Freq (MHz)	Vph (m/ms)
0.00240364	6.82739	0.000401507	0.198929	0.00187795	6.82746	0.279535	301.364	0.333245	2342.22	0.559025	1120.44	0.139788	320.545	0.419285	570.867	0.666492	1034.85
0.00876411	6.82694	0.00085291	0.289118	0.00823853	6.82702	0.279616	150.391	0.333312	310.354	0.559086	390.797	0.140083	102.415	0.419379	251.703	0.666511	422.982
0.015123	6.82616	0.00146528	0.37748	0.0145976	6.82624	0.279751	100.235	0.33348	166.269	0.559206	236.718	0.14068	61.1788	0.419545	161.496	0.666545	265.827
0.0214791	6.82494	0.00223144	0.463586	0.0209539	6.82507	0.279939	75.1988	0.33375	113.622	0.559384	169.818	0.141574	43.8149	0.419783	118.934	0.666594	193.826
0.0278311	6.82329	0.00314278	0.547034	0.0273063	6.82344	0.28018	60.1974	0.334122	86.3576	0.55962	132.432	0.142758	34.293	0.420093	94.1648	0.66666	152.525
0.0341779	6.82121	0.00418957	0.62748	0.0336536	6.8214	0.280472	50.2095	0.334598	69.6969	0.559915	108.565	0.144222	28.3089	0.420475	77.9676	0.666743	125.741
0.040518	6.81866	0.00536165	0.70469	0.0399944	6.81889	0.280816	43.0849	0.335176	58.4699	0.560269	92.0116	0.145955	24.2198	0.420929	66.5537	0.666843	106.965
0.0468503	6.81566	0.00664848	0.778491	0.0455136	6.81633	0.281209	37.7491	0.335858	50.3978	0.56068	79.8598	0.147945	21.2627	0.421453	58.0807	0.666961	93.0741
0.0531733	6.81218	0.00803955	0.848778	0.0502132	6.81388	0.281652	33.6055	0.336645	44.3196	0.56115	70.5627	0.150179	19.0349	0.422049	51.5446	0.667097	82.382
0.0594856	6.80822	0.00952459	0.915509	0.0540951	6.81163	0.282142	30.2961	0.337536	39.582	0.561677	63.222	0.152643	17.3038	0.422714	46.3516	0.667252	73.8986
0.0657855	6.80375	0.0110938	0.978698	0.0571618	6.80974	0.282679	27.5932	0.338534	35.7887	0.562261	57.2807	0.155324	15.9257	0.423449	42.1283	0.667428	67.0041
0.0720716	6.79875	0.012738	1.0384	0.0594148	6.80827	0.283262	25.3451	0.339638	32.686	0.562903	52.3749	0.158208	14.8069	0.424253	38.6278	0.667625	61.2911
0.078342	6.79321	0.0144484	1.09469	0.060856	6.80729	0.28389	23.4466	0.340848	30.1033	0.563602	48.2566	0.161282	13.884	0.425126	35.6804	0.667843	56.4801
0.0845948	6.78708	0.0162173	1.14769	0.0629265	6.80584	0.284562	21.8229	0.342166	27.9221	0.564357	44.7513	0.164533	13.1121	0.426066	33.1659	0.668085	52.3738
0.090828	6.78034	0.0180373	1.19753	0.0651755	6.80421	0.285279	20.4189	0.343592	26.0573	0.565169	41.7325	0.167948	12.4592	0.427073	30.9963	0.66835	48.8282
0.0970396	6.77297	0.019902	1.24436	0.0682312	6.80187	0.286039	19.1934	0.345125	24.4463	0.566037	39.1062	0.171515	11.9013	0.428146	29.106	0.668639	45.7362
0.103227	6.76491	0.0218055	1.28833	0.0720909	6.79874	0.286844	18.1149	0.346767	23.0419	0.56696	36.8011	0.175225	11.4204	0.429284	27.445	0.668955	43.0164
0.109388	6.75614	0.0237427	1.32959	0.0767504	6.79467	0.287694	17.159	0.348515	21.808	0.567939	34.7624	0.179066	11.0026	0.430487	25.9747	0.669297	40.6056
0.115519	6.7466	0.0257089	1.3683	0.0822044	6.7895	0.288589	16.3062	0.350372	20.7164	0.568972	32.9468	0.183028	10.6371	0.431753	24.6646	0.669666	38.4544
0.121618	6.73624	0.0277	1.40463	0.0884454	6.783	0.289531	15.5413	0.352335	19.7448	0.57006	31.32	0.187103	10.3153	0.433082	23.4902	0.670064	36.5232
0.127681	6.725	0.0297126	1.43871	0.0946655	6.77587	0.290522	14.8518	0.354404	18.8752	0.571202	29.8545	0.191282	10.0305	0.434472	22.432	0.670492	34.7802
0.133704	6.71283	0.0317434	1.4707	0.100862	6.76808	0.291565	14.2274	0.356578	18.0932	0.572397	28.5278	0.195556	9.77699	0.435922	21.4739	0.670949	33.1995
0.139683	6.69965	0.0335258	1.49697	0.107034	6.75959	0.292662	13.6599	0.358857	17.3868	0.573645	27.3213	0.19992	9.55027	0.437432	20.6027	0.671438	31.7595
0.145615	6.68538	0.0350535	1.51826	0.113177	6.75035	0.293817	13.1423	0.361238	16.7463	0.574945	26.2198	0.204365	9.34662	0.439001	19.8074	0.671959	30.4425
0.151493	6.66994	0.0363216	1.53513	0.119288	6.7403	0.295034	12.6688	0.363721	16.1632	0.576298	25.2103	0.208885	9.16291	0.440626	19.0787	0.672512	29.2337
0.157312	6.65325	0.0373271	1.54802	0.125365	6.72941	0.296318	12.2345	0.366303	15.6308	0.577701	24.282	0.213474	8.99655	0.442308	18.4089	0.6731	28.1203
0.163067	6.63519	0.0380681	1.55726	0.131404	6.7176	0.297675	11.8352	0.368983	15.1432	0.579156	23.4258	0.218127	8.84534	0.444045	17.7913	0.673722	27.0918
0.168751	6.61567	0.0385428	1.56306	0.137401	6.70482	0.29911	11.4675	0.37176	14.6952	0.580661	22.6337	0.222839	8.70742	0.445836	17.2202	0.674379	26.1389
0.174357	6.59456	0.0392261	1.57127	0.143351	6.69097	0.300631	11.1283	0.374631	14.2827	0.582216	21.899	0.227604	8.5812	0.44768	16.6908	0.675073	25.2538
0.179877	6.57175	0.0399698	1.58	0.14925	6.676	0.302246	10.8151	0.377594	13.9019	0.58382	21.2159	0.232418	8.46532	0.449576	16.1988	0.675803	24.4297
0.185302	6.5471	0.0409829	1.59157	0.155093	6.65979	0.303962	10.5256	0.380648	13.5495	0.585473	20.5792	0.237276	8.35862	0.451522	15.7405	0.676572	23.6606
0.190624	6.52048	0.0422664	1.60573	0.160873	6.64227	0.305789	10.2579	0.38379	13.2228	0.587173	19.9845	0.242174	8.26007	0.453518	15.3127	0.677379	22.9413
0.195832	6.49176	0.0438218	1.62216	0.166585	6.62332	0.307736	10.0104	0.387017	12.9193	0.588921	19.4279	0.247109	8.16879	0.455562	14.9126	0.678225	22.2673
0.200918	6.46081	0.0456501	1.64054	0.172222	6.60283	0.309814	9.78148	0.390328	12.6368	0.590716	18.906	0.252076	8.08401	0.457654	14.5377	0.679111	21.6346
0.205871	6.4275	0.0477524	1.66049	0.177775	6.58069	0.312032	9.57	0.393721	12.3734	0.592557	18.4158	0.257072	8.00505	0.459791	14.1858	0.680037	21.0397
0.21068	6.39172	0.0498583	1.67931	0.183238	6.55675	0.3144	9.37474	0.397193	12.1274	0.594444	17.9546	0.262094	7.93132	0.461975	13.8549	0.681006	20.4793
0.215335	6.35337	0.0519671	1.69709	0.1886	6.53091	0.316928	9.19468	0.400743	11.8974	0.596376	17.5199	0.267138	7.86229	0.464202	13.5433	0.682016	19.9507
0.219827	6.31238	0.0540782	1.71388	0.193853	6.50301	0.319624	9.02886	0.404367	11.6818	0.598352	17.1096	0.272201	7.79749	0.466473	13.2494	0.683069	19.4514
0.224147	6.26872	0.0561909	1.72976	0.198987	6.47293	0.322498	8.87641	0.408064	11.4797	0.600372	16.7219	0.277281	7.73652	0.468786	12.9718	0.684166	18.9791
0.228288	6.22239	0.0583049	1.74479	0.203992	6.44053	0.325553	8.73648	0.411832	11.2898	0.602435	16.355	0.282373	7.67899	0.47114	12.7093	0.685306	18.5317
0.232244	6.17343	0.0604197	1.75904	0.208857	6.40571	0.328796	8.60827	0.415669	11.1112	0.604541	16.0072	0.287477	7.62459	0.473535	12.4607	0.686492	18.1076
0.236011	6.12196	0.062535	1.77254	0.213573	6.36835	0.332227	8.49099	0.419572	10.943	0.606689	15.6774	0.292587	7.573	0.47597	12.2251	0.687723	17.7049
0.239588	6.06809	0.0646504	1.78535	0.218128	6.32838	0.335848	8.38387	0.423541	10.7844	0.608878	15.364	0.297703	7.52396	0.478444	12.0014	0.689	17.3223
0.242976	6.01204	0.0667659	1.79752	0.222515	6.28574	0.339654	8.28616	0.427572	10.6347	0.611108	15.0661	0.30282	7.47724	0.480957	11.7889	0.690323	16.9584
0.246178	5.95401	0.0688811	1.80909	0.226725	6.24043	0.343641	8.19712	0.431664	10.4934	0.613378	14.7825	0.307938	7.4326	0.483507	11.5868	0.691694	16.6118
0.2492	5.89428	0.070996	1.8201	0.230752	6.19247	0.347802	8.116	0.435815	10.3596	0.615688	14.5123	0.313051	7.38985	0.486095	11.3944	0.693112	16.2816
0.252049	5.83311	0.0731103	1.83058	0.234592	6.14194	0.352129	8.04212	0.440024	10.2331	0.618036	14.2546	0.317503	7.35399	0.48872	11.2111	0.694579	15.9666
0.254733	5.7708	0.0752241	1.84057	0.238242	6.08897	0.356611	7.9748	0.444288	10.1131	0.620423	14.0086	0.321293	7.32436	0.491382	11.0363	0.696095	15.6659
0.257263	5.70764	0.0773371	1.85009	0.241702	6.03373	0.361238	7.9134	0.448607	9.99934	0.622848	13.7736	0.324424	7.30047	0.49408	10.8694	0.69766	15.3787
0.259649	5.64391	0.0794494	1.85919	0.244975	5.97643	0.365999	7.85732	0.452978	9.89136	0.625311	13.5489	0.326895	7.28194	0.496814	10.7101	0.699275	15.1041
0.261902	5.57988	0.0815609	1.86787	0.248065	5.91732	0.370882	7.80601	0.457401	9.78878	0.62781	13.3339	0.328711	7.26851	0.499584	10.5577	0.70094	14.8414
0.264033	5.51579	0.0836715	1.87618	0.250979	5.85667	0.375875	7.75896	0.461873	9.69125	0.630345	13.128	0.329872	7.26	0.502391	10.412	0.702656	14.5899
0.266052	5.45186	0.0857813	1.88412	0.253725	5.79476	0.380968	7.7157	0.466393	9.59846	0.632916	12.9306	0.33154	7.24787	0.505234	10.2726	0.704423	14.349
0.26797	5.3883	0.0878901	1.89173	0.256313	5.73189	0.38615	7.67582	0.470961	9.51011	0.635523	12.7414	0.333351	7.23483	0.508113	10.1391	0.706242	14.1181
0.269798	5.32528	0.0899981	1.89902	0.258752	5.66835	0.391412	7.63893	0.475574	9.42592	0.638164	12.5597	0.33581	7.21732	0.51103	10.0112	0.708112	13.8966
0.271543	5.26293	0.0921051	1.90601	0.261055	5.6044	0.396743	7.60469	0.480232	9.34566	0.64084	12.3853	0.338915	7.19554	0.513983	9.88854	0.710034	13.6842
0.273214	5.2014	0.0942112	1.91271	0.263231	5.5403	0.402135	7.57281	0.484933	9.26909	0.64355	12.2176	0.34266	7.16969	0.516975	9.77096	0.712008	13.4802
0.274819	5.14077	0.0963164	1.91915	0.265292	5.47629	0.40758	7.543	0.489676	9.19599	0.646293	12.0565	0.347038	7.14	0.520006	9.65816	0.714034	13.2842
0.276365	5.08114	0.0984208	1.92534	0.267248	5.41257	0.413071	7.51504	0.494461	9.12617	0.649069	11.9014	0.352039	7.10668	0.523076	9.54992	0.716114	13.0959
0.277859	5.02256	0.100524	1.93129	0.269109	5.34932	0.417887	7.49199	0.499286	9.05944	0.651879	11.7521	0.357015	7.07408	0.526186	9.44603	0.718245	12.9148
0.279305	4.96509	0.102627	1.93701	0.270884	5.2867	0.422012	7.47323	0.504151	8.99564	0.65472	11.6084	0.361962	7.04209	0.529338	9.34628	0.72043	12.7407
0.28071	4.90877	0.104729	1.94252	0.272583	5.22484	0.425436	7.45827	0.509054	8.93459	0.657594	11.4699	0.366878	7.01065	0.532531	9.2505	0.722667	12.5731
0.282079	4.85362	0.10683	1.94783	0.274212	5.16386	0.42815	7.44676	0.513995	8.87617	0.6605	11.3363	0.371759	6.97966	0.535768	9.1585	0.724957	12.4117
0.283414	4.79966	0.10893	1.95295	0.27578	5.10384	0.430149	7.43848	0.518973	8.82022	0.663437	11.2075	0.376603	6.94905	0.53905	9.07014	0.727299	12.2563
0.284721	4.74689	0.111029	1.95788	0.277293	5.04485	0.431429	7.43325	0.523988	8.76662	0.666406	11.0832	0.381407	6.91875	0.542377	8.98526	0.729694	12.1066
0.286002	4.69532	0.113128	1.96265	0.278757	4.98695	0.433272	7.42583	0.529037	8.71526	0.669405	10.9632	0.386169	6.8887	0.545751	8.90372	0.732141	11.9623
0.287261	4.64494	0.115226	1.96724	0.280177	4.93019	0.435277	7.4179	0.534122	8.66601	0.672436	10.8474	0.390885	6.85884	0.549172	8.8254	0.734639	11.8231
0.288501	4.59575	0.117323	1.97169	0.281559	4.87458	0.438008	7.4073	0.539241	8.61877	0.675498	10.7354	0.395553	6.8291	0.552643	8.75016	0.73719	11.6889
0.289723	4.54773	0.11942	1.97598	0.282907	4.82016	0.441465	7.39421	0.544393	8.57346	0.67859	10.6272	0.40017	6.79944	0.556164	8.67789	0.739791	11.5594
0.290931	4.50086	0.121516	1.98014	0.284224	4.76694	0.445652	7.37879	0.549579	8.52996	0.681713	10.5226	0.404733	6.7698	0.559735	8.60848	0.742443	11.4343
0.292126	4.45513	0.123611	1.98415	0.285515	4.71491	0.450569	7.36124	0.554797	8.48821	0.684867	10.4214	0.409239	6.74014	0.563359	8.54181	0.745146	11.3136
0.29331	4.41051	0.125705	1.98804	0.286782	4.66408	0.456215	7.34173	0.560047	8.44811	0.688051	10.3235	0.413687	6.71042	0.567036	8.4778	0.747898	11.197
0.294484	4.36699	0.127799	1.99181	0.288029	4.61443	0.461861	7.32281	0.565329	8.40959	0.691267	10.2287	0.418073	6.6806	0.570766	8.41633	0.7507	11.0844
0.295651	4.32454	0.129893	1.99546	0.289258	4.56597	0.467505	7.30438	0.570641	8.37258	0.694513	10.137	0.422395	6.65066	0.57455	8.35731	0.75355	10.9755
0.296811	4.28314	0.131986	1.999	0.290471	4.51866	0.473141	7.28638	0.575984	8.337	0.69779	10.0482	0.426651	6.62054	0.578389	8.30065	0.756449	10.8702
0.297966	4.24276	0.134078	2.00244	0.29167	4.47249	0.478768	7.26875	0.581357	8.3028	0.701098	9.96216	0.430839	6.59024	0.582282	8.24626	0.759394	10.7683
0.299116	4.20338	0.13617	2.00577	0.292858	4.42746	0.484383	7.25141	0.58676	8.26992	0.704438	9.87884	0.434956	6.55973	0.586229	8.19405	0.762386	10.6698
0.300264	4.16497	0.138261	2.009	0.294036	4.38352	0.489981	7.23432	0.592191	8.23829	0.707809	9.79809	0.439001	6.529	0.590231	8.14392	0.765424	10.5744
0.301409	4.12752	0.140352	2.01215	0.295205	4.34066	0.495562	7.21743	0.597651	8.20785	0.711212	9.71984	0.442972	6.49802	0.594286	8.09581	0.768506	10.4821
0.302552	4.09098	0.142443	2.0152	0.296368	4.29886	0.501121	7.20069	0.603138	8.17856	0.714648	9.644	0.446868	6.46679	0.598395	8.04961	0.771633	10.3926
0.303695	4.05534	0.144533	2.01816	0.297525	4.2581	0.506657	7.18405	0.608652	8.15037	0.718116	9.57047	0.450689	6.43531	0.602556	8.00525	0.774802	10.306
0.304838	4.02058	0.146622	2.02105	0.298677	4.21834	0.512166	7.16749	0.614193	8.12322	0.721617	9.49919	0.454431	6.40356	0.606768	7.96265	0.778014	10.2221
0.305981	3.98667	0.148711	2.02385	0.299825	4.17956	0.517648	7.15096	0.61976	8.09707	0.725152	9.43007	0.458097	6.37156	0.61103	7.92172	0.781267	10.1407
0.307125	3.95358	0.1508	2.02658	0.300971	4.14174	0.523099	7.13444	0.625352	8.07187	0.728722	9.36304	0.461684	6.33931	0.61534	7.88239	0.784561	10.0617
0.308271	3.9213	0.152888	2.02924	0.302115	4.10485	0.528518	7.1179	0.630968	8.04758	0.732326	9.29804	0.465193	6.30681	0.619135	7.84937	0.787894	9.98516
0.309419	3.88981	0.154976	2.03182	0.303258	4.06887	0.533902	7.1013	0.636607	8.02416	0.735965	9.235	0.468625	6.27408	0.622397	7.82208	0.791265	9.91086
0.310569	3.85907	0.157064	2.03434	0.3044	4.03378	0.539249	7.08463	0.64227	8.00156	0.739641	9.17387	0.471978	6.24113	0.625113	7.80011	0.794673	9.83874
0.311723	3.82907	0.159151	2.0368	0.305543	3.99954	0.544558	7.06787	0.647954	7.97975	0.743353	9.11458	0.475255	6.20797	0.627271	7.7831	0.798118	9.7687
0.312879	3.79978	0.161238	2.03919	0.306687	3.96615	0.549827	7.05099	0.653658	7.95868	0.747102	9.05709	0.478455	6.17463	0.628865	7.77079	0.801598	9.70067
0.31389	3.77484	0.163324	2.04152	0.307832	3.93356	0.555054	7.03398	0.659382	7.93833	0.75089	9.00134	0.48158	6.14112	0.629888	7.763	0.805112	9.63457
0.314753	3.75398	0.16541	2.0438	0.308979	3.90177	0.560238	7.01682	0.665125	7.91864	0.754717	8.94729	0.484632	6.10747	0.631362	7.75192	0.808659	9.57032
0.315469	3.73701	0.167496	2.04602	0.310129	3.87074	0.565376	6.99949	0.670144	7.90201	0.758584	8.89488	0.487611	6.0737	0.632968	7.74002	0.812239	9.50785
0.316036	3.72376	0.169582	2.04818	0.311281	3.84046	0.570468	6.98199	0.674432	7.8882	0.762492	8.84408	0.490519	6.03983	0.635162	7.7241	0.81585	9.44708
0.316454	3.71412	0.171667	2.0503	0.312436	3.81091	0.575511	6.96431	0.677984	7.87701	0.766441	8.79485	0.493358	6.00588	0.637949	7.70437	0.819491	9.38796
0.316721	3.708	0.173752	2.05236	0.313595	3.78206	0.580506	6.94643	0.680796	7.86832	0.770433	8.74714	0.496129	5.97189	0.641337	7.68109	0.823162	9.33042
0.317106	3.69925	0.175837	2.05438	0.314757	3.75389	0.58545	6.92835	0.682867	7.86201	0.774469	8.70092	0.498835	5.93787	0.645337	7.65456	0.82686	9.27441
0.317526	3.68981	0.177922	2.05635	0.315923	3.72639	0.590342	6.91005	0.684192	7.85801	0.778549	8.65616	0.501477	5.90384	0.649957	7.6251	0.830586	9.21985
0.318096	3.67711	0.180006	2.05828	0.317093	3.69954	0.595181	6.89154	0.686099	7.8523	0.782675	8.61282	0.504058	5.86984	0.654608	7.59663	0.834339	9.1667
0.31882	3.66125	0.18209	2.06016	0.318268	3.67332	0.599967	6.87281	0.688174	7.84616	0.786848	8.57086	0.506579	5.83588	0.659288	7.5691	0.838117	9.11491
0.319697	3.64237	0.184174	2.062	0.319448	3.64771	0.604698	6.85385	0.690997	7.83792	0.791069	8.53027	0.509042	5.80198	0.663994	7.54244	0.84192	9.06442
0.32073	3.62065	0.186257	2.0638	0.320632	3.62269	0.609373	6.83467	0.694572	7.82765	0.795339	8.491	0.51145	5.76817	0.668723	7.51661	0.845747	9.01519
0.321919	3.59625	0.188341	2.06556	0.321821	3.59825	0.613992	6.81526	0.6989	7.81547	0.799658	8.45304	0.513804	5.73447	0.673473	7.49155	0.849597	8.96717
0.323114	3.57242	0.190424	2.06728	0.323015	3.57437	0.618554	6.79562	0.703984	7.80148	0.804029	8.41635	0.516107	5.70089	0.678242	7.46722	0.85347	8.92033
0.324314	3.54912	0.192507	2.06896	0.324215	3.55103	0.623059	6.77576	0.709824	7.78582	0.808452	8.38091	0.518361	5.66746	0.683028	7.44355	0.857364	8.87461
0.32552	3.52636	0.194589	2.07062	0.32542	3.52822	0.627505	6.75566	0.715671	7.77054	0.812928	8.34669	0.520567	5.63418	0.687828	7.42052	0.861279	8.82998
0.32673	3.50411	0.196672	2.07223	0.32663	3.50593	0.631894	6.73534	0.721522	7.75561	0.817459	8.31368	0.522727	5.60109	0.69264	7.39807	0.865215	8.7864
0.327947	3.48236	0.198754	2.07381	0.327846	3.48414	0.636223	6.7148	0.727375	7.741	0.822044	8.28185	0.524844	5.56818	0.697462	7.37616	0.86917	8.74384
0.329169	3.4611	0.200836	2.07536	0.329068	3.46283	0.640493	6.69405	0.733229	7.72669	0.826687	8.25116	0.526919	5.53548	0.702291	7.35477	0.873145	8.70227
0.330397	3.4403	0.202918	2.07688	0.330295	3.442	0.644703	6.67307	0.739082	7.71264	0.831386	8.22162	0.528955	5.503	0.707125	7.33384	0.877139	8.66164
0.33163	3.41997	0.205	2.07837	0.331528	3.42163	0.648855	6.65189	0.744931	7.69882	0.835529	8.19677	0.530951	5.47074	0.711963	7.31334	0.881152	8.62194
0.33287	3.40008	0.207082	2.07983	0.332767	3.40171	0.652946	6.63051	0.750774	7.68522	0.839096	8.17625	0.532912	5.43873	0.716801	7.29324	0.885182	8.58312
0.334115	3.38063	0.209163	2.08126	0.334012	3.38222	0.656979	6.60893	0.756611	7.67179	0.842071	8.15973	0.534837	5.40696	0.721639	7.27352	0.88923	8.54518
0.335367	3.3616	0.211245	2.08266	0.335263	3.36316	0.660952	6.58716	0.762437	7.65852	0.844438	8.14695	0.536728	5.37546	0.726474	7.25413	0.893295	8.50807
0.336624	3.34298	0.213326	2.08403	0.33652	3.34451	0.664866	6.56521	0.768252	7.64538	0.846189	8.13771	0.538588	5.34422	0.731304	7.23504	0.897377	8.47177
0.337887	3.32477	0.215407	2.08538	0.337783	3.32626	0.668721	6.54308	0.774054	7.63235	0.847313	8.13187	0.540418	5.31325	0.736127	7.21624	0.901476	8.43626
0.339157	3.30694	0.217488	2.08671	0.339051	3.3084	0.672518	6.52079	0.77984	7.6194	0.848934	8.12356	0.542218	5.28256	0.740942	7.1977	0.905592	8.40153
0.340432	3.28949	0.219568	2.088	0.340326	3.29092	0.676257	6.49833	0.785607	7.60651	0.850704	8.11466	0.54399	5.25215	0.745746	7.17939	0.909724	8.36754
0.341713	3.27241	0.221649	2.08928	0.341607	3.27381	0.679938	6.47573	0.791356	7.59366	0.853124	8.10276	0.545736	5.22203	0.750538	7.16129	0.913338	8.33851
0.343001	3.2557	0.223729	2.09053	0.342894	3.25706	0.683562	6.45298	0.797082	7.58084	0.856205	8.08806	0.547457	5.19221	0.755316	7.14338	0.916429	8.31419
0.344294	3.23933	0.22581	2.09176	0.344187	3.24067	0.68713	6.43011	0.802785	7.56802	0.859961	8.07078	0.549153	5.16268	0.760078	7.12563	0.918991	8.29437
0.345594	3.2233	0.22789	2.09296	0.345486	3.22461	0.690641	6.40711	0.808463	7.55518	0.864411	8.05119	0.550827	5.13345	0.764823	7.10803	0.921021	8.27888
0.3469	3.2076	0.22997	2.09415	0.346791	3.20889	0.694098	6.384	0.814114	7.54232	0.869575	8.02961	0.552479	5.10452	0.769549	7.09056	0.922517	8.26759
0.348211	3.19223	0.23205	2.09531	0.348103	3.19349	0.6975	6.36078	0.819736	7.52942	0.874801	8.00896	0.55411	5.0759	0.774255	7.07319	0.923475	8.26041
0.349529	3.17717	0.234129	2.09645	0.34942	3.17841	0.700848	6.33747	0.825329	7.51647	0.880088	7.98922	0.555721	5.04758	0.778939	7.05593	0.924854	8.25015
0.350853	3.16242	0.236209	2.09757	0.350743	3.16363	0.704144	6.31407	0.830892	7.50346	0.885435	7.97035	0.557313	5.01956	0.7836	7.03874	0.926354	8.23908
0.352182	3.14797	0.238289	2.09868	0.352072	3.14916	0.707388	6.2906	0.836423	7.49039	0.890843	7.95233	0.558887	4.99185	0.788236	7.02162	0.928398	8.22416
0.353518	3.13381	0.240368	2.09976	0.353408	3.13497	0.71058	6.26707	0.841922	7.47725	0.896309	7.93513	0.560445	4.96444	0.792846	7.00455	0.930988	8.20551
0.35486	3.11994	0.242447	2.10083	0.354749	3.12108	0.713722	6.24348	0.847388	7.46403	0.901833	7.91872	0.561985	4.93735	0.797428	6.98752	0.934129	8.18327
0.356208	3.10634	0.244527	2.10188	0.356096	3.10746	0.716815	6.21984	0.852821	7.45074	0.907414	7.90307	0.563511	4.91055	0.801982	6.97052	0.937824	8.15762
