Sym0		Asym0		Sym1		Sym2		Sym3		Sym4		Asym1		Asym2		Asym3	
466  Points		496  Points		226  Points		193  Points		180  Points		125  Points		329  Points		205  Points		168  Points	
Freq (MHz)	Vph (m/ms)	Freq (MHz)	Vph (m/ms)	Freq (MHz)	Vph (m/ms)	Freq (MHz)	Vph (m/ms)	Freq (MHz)	Vph (m/ms)	Freq (MHz)	Vph (m/ms)	Freq (MHz)	Vph (m/ms)	Freq (MHz)	Vph (m/ms)	Freq (MHz)	Vph (m/ms)
0.00438314	5.31722	0.000375492	0.169871	0.279509	3271.75	0.477836	782.981	0.559021	1357.22	0.838536	1004.15	0.139765	445.877	0.419265	1441.35	0.698771	45438.6
0.00933701	5.31713	0.0007558	0.240536	0.279549	274.842	0.477859	309.901	0.559062	416.098	0.838571	474.636	0.13993	112.379	0.419306	342.969	0.698786	737.838
0.0142904	5.31693	0.00126371	0.310201	0.279657	143.5	0.477902	193.196	0.559145	245.748	0.838632	310.782	0.14029	64.4461	0.419398	194.682	0.698831	371.962
0.0192432	5.31666	0.00189541	0.378662	0.279832	97.1465	0.477965	140.357	0.559271	174.392	0.838718	231.042	0.140843	45.3083	0.419541	135.951	0.698905	248.679
0.0241951	5.31632	0.00264597	0.445657	0.280075	73.4679	0.478048	110.224	0.55944	135.174	0.838829	183.879	0.141586	35.0441	0.419734	104.472	0.699007	186.793
0.029146	5.3159	0.0035102	0.511026	0.280385	59.1043	0.478151	90.7523	0.559651	110.377	0.838966	152.718	0.142516	28.664	0.419977	84.8548	0.69914	149.585
0.0340955	5.31538	0.00448208	0.574579	0.280762	49.4683	0.478275	77.1356	0.559905	93.2855	0.839128	130.599	0.143625	24.3283	0.420271	71.4618	0.699301	124.752
0.0390434	5.31478	0.00555557	0.636208	0.281206	42.5599	0.478419	67.0793	0.560201	80.7934	0.839315	114.085	0.14491	21.2001	0.420615	61.7394	0.699492	107.001
0.0439896	5.31411	0.00672406	0.695783	0.281715	37.3678	0.478584	59.3494	0.56054	71.2662	0.839528	101.287	0.146363	18.8441	0.421009	54.3627	0.699712	93.6829
0.0489337	5.31335	0.00798126	0.753254	0.282291	33.3256	0.47877	53.2231	0.560921	63.7617	0.839765	91.0776	0.147977	17.0113	0.421453	48.5761	0.699961	83.3224
0.0538756	5.3125	0.00932065	0.808565	0.282931	30.0914	0.478977	48.2488	0.561344	57.699	0.840028	82.745	0.149745	15.5492	0.421947	43.917	0.700239	75.0337
0.0588149	5.31157	0.010736	0.861697	0.283636	27.4466	0.479205	44.1301	0.561809	52.6999	0.840317	75.8154	0.15166	14.3589	0.42249	40.0863	0.700546	68.2526
0.0637515	5.31055	0.0122211	0.91265	0.284404	25.245	0.479455	40.6641	0.562315	48.508	0.84063	69.9627	0.153715	13.3737	0.423083	36.8821	0.700882	62.6027
0.0686849	5.30945	0.0137702	0.961437	0.285236	23.3848	0.479727	37.7076	0.562863	44.943	0.840968	64.9542	0.155902	12.5469	0.423725	34.1633	0.701247	57.8233
0.0736151	5.30825	0.0153777	1.0081	0.286129	21.7934	0.480022	35.1561	0.563452	41.8749	0.841332	60.6199	0.158214	11.8449	0.424415	31.8281	0.701641	53.7281
0.0785417	5.30696	0.0170384	1.05267	0.287085	20.4173	0.480339	32.9322	0.564082	39.2069	0.841721	56.8327	0.160644	11.2426	0.425155	29.8013	0.702064	50.1804
0.0834644	5.30557	0.0187474	1.09521	0.288101	19.2163	0.480679	30.9768	0.564753	36.8662	0.842134	53.4954	0.162854	10.7844	0.425942	28.0262	0.702516	47.0776
0.0883828	5.30409	0.0205002	1.13579	0.289177	18.1595	0.481043	29.2443	0.565464	34.7963	0.842573	50.5325	0.164801	10.4351	0.426777	26.4591	0.702996	44.3414
0.0932968	5.30251	0.0222925	1.17447	0.290311	17.2231	0.48143	27.699	0.566216	32.9532	0.843036	47.8846	0.166453	10.1711	0.42766	25.066	0.703506	41.9105
0.098206	5.30083	0.0241206	1.21132	0.291503	16.388	0.481842	26.3122	0.567007	31.302	0.843525	45.5042	0.167786	9.97668	0.428591	23.8197	0.704043	39.737
0.10311	5.29904	0.0259807	1.24642	0.292753	15.639	0.482278	25.061	0.567838	29.8144	0.844038	43.353	0.16878	9.84109	0.429568	22.6987	0.704609	37.7821
0.108009	5.29715	0.0278698	1.27984	0.294057	14.964	0.48274	23.9266	0.568708	28.4675	0.844576	41.3994	0.169422	9.7574	0.430592	21.6852	0.705204	36.0147
0.112901	5.29515	0.0297847	1.31165	0.295417	14.3527	0.483227	22.8936	0.569617	27.2425	0.845138	39.6177	0.170354	9.6411	0.431661	20.7648	0.705827	34.4093
0.117788	5.29304	0.0317229	1.34195	0.29683	13.7968	0.483741	21.949	0.570565	26.1237	0.845726	37.9861	0.171379	9.51979	0.432777	19.9254	0.706478	32.9447
0.122667	5.29081	0.0336817	1.37078	0.298296	13.2894	0.484281	21.0823	0.571551	25.0982	0.846337	36.4867	0.172789	9.36279	0.433938	19.1571	0.707157	31.6033
0.12754	5.28846	0.0356592	1.39824	0.299814	12.8247	0.484849	20.2843	0.572576	24.155	0.846974	35.1042	0.174602	9.17645	0.435144	18.4514	0.707864	30.3703
0.132405	5.28598	0.0376531	1.42439	0.301381	12.3977	0.485444	19.5473	0.573638	23.2846	0.847635	33.8254	0.176836	8.96765	0.436394	17.8011	0.708599	29.2333
0.137263	5.28338	0.0396618	1.4493	0.302998	12.0041	0.486068	18.8647	0.574737	22.4791	0.84832	32.6392	0.179512	8.74335	0.437688	17.2002	0.709362	28.1816
0.142112	5.28065	0.0416835	1.47303	0.304663	11.6404	0.48672	18.2308	0.575873	21.7316	0.84903	31.536	0.182652	8.51012	0.439026	16.6434	0.710153	27.206
0.146952	5.27778	0.0437169	1.49564	0.306375	11.3035	0.487403	17.6407	0.577046	21.0363	0.849764	30.5075	0.185863	8.29944	0.440407	16.1262	0.710971	26.2986
0.151782	5.27476	0.0454972	1.51448	0.308133	10.9905	0.488115	17.0902	0.578256	20.3879	0.850522	29.5464	0.18914	8.10843	0.441831	15.6446	0.711817	25.4527
0.156603	5.2716	0.0470204	1.52993	0.309702	10.7356	0.488858	16.5755	0.579501	19.7819	0.851304	28.6464	0.19248	7.93468	0.443297	15.1952	0.71269	24.6623
0.161413	5.26829	0.0482835	1.54231	0.311065	10.5302	0.489632	16.0933	0.580782	19.2146	0.85211	27.8019	0.195878	7.77612	0.444804	14.775	0.71359	23.9222
0.166211	5.26481	0.0492843	1.55185	0.312211	10.3681	0.490439	15.6409	0.582098	18.6822	0.85294	27.008	0.199332	7.631	0.446353	14.3814	0.714517	23.2278
0.170998	5.26117	0.0500213	1.55872	0.313128	10.2446	0.491278	15.2155	0.583449	18.1819	0.853794	26.2603	0.202839	7.49782	0.447942	14.012	0.715472	22.5751
0.175773	5.25736	0.0504935	1.56306	0.313808	10.1563	0.49215	14.815	0.584835	17.7109	0.854672	25.555	0.206396	7.37527	0.449572	13.6647	0.716453	21.9604
0.180534	5.25336	0.0511728	1.56922	0.314247	10.1009	0.493056	14.4374	0.586255	17.2667	0.855573	24.8886	0.209999	7.26225	0.451241	13.3377	0.717461	21.3807
0.18528	5.24918	0.051912	1.57581	0.314881	10.0226	0.493997	14.0808	0.587708	16.8472	0.856499	24.2581	0.213646	7.15776	0.452949	13.0294	0.718495	20.8331
0.190012	5.2448	0.0529186	1.5846	0.315575	9.93944	0.494972	13.7436	0.589196	16.4505	0.857447	23.6606	0.217336	7.06096	0.454696	12.7383	0.719556	20.3151
0.194729	5.24021	0.0541935	1.59543	0.316527	9.82933	0.495984	13.4244	0.590716	16.0748	0.858419	23.0937	0.221064	6.97109	0.456481	12.463	0.720643	19.8243
0.199428	5.23541	0.055738	1.60813	0.317745	9.69484	0.497032	13.1219	0.592269	15.7185	0.859415	22.5551	0.224831	6.8875	0.458303	12.2023	0.721756	19.3587
0.20411	5.23039	0.0575532	1.6225	0.319237	9.53894	0.498118	12.8349	0.593855	15.3803	0.860433	22.0429	0.228632	6.8096	0.460163	11.9553	0.722895	18.9166
0.208773	5.22513	0.0596402	1.6383	0.321015	9.36488	0.499241	12.5622	0.595473	15.0588	0.861475	21.5551	0.232467	6.73688	0.462059	11.7208	0.72406	18.4961
0.213416	5.21963	0.0617309	1.65342	0.323091	9.17604	0.500403	12.303	0.597122	14.753	0.86254	21.0901	0.236334	6.66888	0.463991	11.4981	0.72525	18.0958
0.218038	5.21386	0.0638248	1.66788	0.325205	8.99797	0.501604	12.0564	0.598803	14.4616	0.863628	20.6463	0.240231	6.60518	0.465958	11.2862	0.726466	17.7144
0.222638	5.20783	0.0659215	1.68172	0.327354	8.82982	0.502845	11.8215	0.600515	14.1838	0.864738	20.2224	0.244156	6.54543	0.46796	11.0846	0.727708	17.3505
0.227214	5.20152	0.0680204	1.69498	0.32954	8.67086	0.504126	11.5976	0.602258	13.9187	0.865872	19.8172	0.248108	6.48929	0.469733	10.9167	0.728974	17.003
0.231766	5.19491	0.0701214	1.70769	0.33176	8.5204	0.505448	11.384	0.604032	13.6654	0.867028	19.4293	0.252085	6.43648	0.471265	10.7789	0.730265	16.6708
0.236291	5.18799	0.0722241	1.71987	0.334014	8.37784	0.506812	11.1801	0.605835	13.4233	0.868206	19.0578	0.256087	6.38671	0.472546	10.6685	0.731582	16.353
0.240788	5.18075	0.0743281	1.73156	0.336303	8.24261	0.508035	11.0099	0.607668	13.1916	0.869407	18.7017	0.260111	6.33976	0.473567	10.5834	0.732923	16.0488
0.245255	5.17317	0.0764332	1.74277	0.338624	8.11422	0.509103	10.87	0.60953	12.9697	0.870631	18.3601	0.264157	6.29541	0.474323	10.5221	0.734288	15.7572
0.249691	5.16523	0.0785393	1.75354	0.340979	7.99221	0.510005	10.7578	0.611422	12.757	0.871876	18.032	0.268223	6.25346	0.474809	10.4834	0.735678	15.4776
0.254094	5.15692	0.0806461	1.76389	0.343366	7.87617	0.510729	10.6712	0.613342	12.5531	0.873144	17.7169	0.272308	6.21374	0.475511	10.4284	0.737092	15.2092
0.258463	5.14823	0.0827533	1.77383	0.345786	7.76571	0.511268	10.6087	0.615291	12.3573	0.874433	17.4138	0.276412	6.17607	0.476278	10.3695	0.73853	14.9514
0.262794	5.13913	0.084861	1.78339	0.348238	7.66048	0.511616	10.5692	0.617268	12.1693	0.875745	17.1222	0.280533	6.14031	0.477327	10.291	0.739992	14.7037
0.267086	5.12961	0.0869689	1.79259	0.350722	7.56018	0.51212	10.5131	0.619273	11.9886	0.877078	16.8415	0.284669	6.10633	0.478665	10.194	0.741477	14.4654
0.271338	5.11965	0.089077	1.80145	0.353239	7.46452	0.512674	10.4531	0.621305	11.8149	0.878432	16.5711	0.288821	6.074	0.480299	10.0802	0.742986	14.2361
0.275546	5.10923	0.091185	1.80998	0.355789	7.37324	0.513436	10.3729	0.623365	11.6477	0.879809	16.3104	0.292988	6.04321	0.482238	9.95136	0.744518	14.0152
0.279709	5.09834	0.093293	1.81819	0.358371	7.28608	0.514414	10.2739	0.625451	11.4867	0.881207	16.0589	0.297167	6.01386	0.484492	9.80927	0.746073	13.8024
0.283824	5.08697	0.0954009	1.82612	0.360988	7.20283	0.515621	10.1576	0.627564	11.3316	0.882626	15.8162	0.30136	5.98584	0.486776	9.67305	0.747651	13.5973
0.287889	5.07509	0.0975084	1.83376	0.363638	7.12329	0.517068	10.0257	0.629427	11.201	0.884066	15.5819	0.305564	5.95907	0.48909	9.54236	0.749251	13.3993
0.291903	5.06269	0.0996158	1.84113	0.366323	7.04728	0.518771	9.88028	0.631031	11.0929	0.885527	15.3555	0.309779	5.93346	0.491434	9.41691	0.750874	13.2083
0.295862	5.04975	0.101723	1.84824	0.369045	6.97461	0.52052	9.74075	0.632368	11.0057	0.887009	15.1366	0.314005	5.90895	0.493806	9.2964	0.75252	13.0238
0.299765	5.03627	0.10383	1.85512	0.371802	6.90514	0.522316	9.60685	0.633432	10.9381	0.888512	14.925	0.31824	5.88546	0.496207	9.18057	0.754188	12.8455
0.303608	5.02224	0.105936	1.86176	0.374598	6.83873	0.524158	9.47832	0.634218	10.8891	0.890035	14.7202	0.322485	5.86293	0.498636	9.06918	0.755877	12.6732
0.307392	5.00764	0.108042	1.86818	0.377432	6.77523	0.526048	9.35488	0.634723	10.858	0.89158	14.522	0.326737	5.8413	0.501092	8.96199	0.757589	12.5065
0.311112	4.99247	0.110147	1.87439	0.380306	6.71452	0.527985	9.23629	0.635451	10.8139	0.893144	14.33	0.330997	5.82051	0.503576	8.85879	0.759322	12.3452
0.314768	4.97674	0.112252	1.88039	0.383221	6.6565	0.52997	9.12233	0.636245	10.7664	0.894729	14.144	0.335264	5.80051	0.506086	8.75938	0.761076	12.1891
0.318358	4.96043	0.114357	1.88621	0.386179	6.60105	0.532002	9.01277	0.637331	10.7028	0.896334	13.9637	0.339537	5.78125	0.508622	8.66357	0.762852	12.0379
0.321881	4.94355	0.11646	1.89184	0.389181	6.54808	0.534082	8.90742	0.638712	10.6239	0.897959	13.7889	0.343816	5.76269	0.511184	8.57118	0.764648	11.8915
0.325335	4.9261	0.118564	1.89729	0.392228	6.49749	0.53621	8.80607	0.640395	10.5307	0.899604	13.6193	0.348101	5.74479	0.513771	8.48205	0.766466	11.7495
0.328288	4.91045	0.120667	1.90258	0.395321	6.44919	0.538386	8.70856	0.642387	10.4243	0.901268	13.4547	0.352389	5.7275	0.516383	8.39603	0.768304	11.6118
0.330763	4.89679	0.122769	1.9077	0.398462	6.40311	0.54061	8.61471	0.644695	10.3059	0.902953	13.2949	0.356682	5.7108	0.51902	8.31297	0.769923	11.4952
0.332781	4.88526	0.124871	1.91267	0.401652	6.35915	0.542882	8.52435	0.647027	10.1914	0.904657	13.1398	0.360979	5.69464	0.52168	8.23272	0.771314	11.3982
0.334357	4.87601	0.126972	1.91749	0.404891	6.31726	0.545202	8.43734	0.649384	10.0806	0.90638	12.989	0.365278	5.67899	0.524364	8.15517	0.772474	11.3196
0.335506	4.86913	0.129073	1.92217	0.408181	6.27734	0.547569	8.35354	0.651764	9.97327	0.908122	12.8425	0.369579	5.66383	0.527071	8.08019	0.773396	11.2585
0.336236	4.8647	0.131174	1.92672	0.411522	6.23932	0.549984	8.27279	0.654167	9.86935	0.909884	12.7001	0.373883	5.64912	0.529801	8.00767	0.774077	11.2141
0.337279	4.85827	0.133273	1.93113	0.414916	6.20314	0.552446	8.19498	0.656594	9.76864	0.911665	12.5616	0.378188	5.63484	0.532554	7.93749	0.774514	11.1859
0.338405	4.85123	0.135373	1.93542	0.418361	6.16873	0.554956	8.11997	0.659043	9.67103	0.913464	12.4269	0.382494	5.62097	0.535328	7.86956	0.775144	11.1457
0.339921	4.84156	0.137471	1.93959	0.421858	6.136	0.557511	8.04766	0.661515	9.57637	0.915282	12.2957	0.3868	5.60747	0.538124	7.80379	0.775832	11.1025
0.341814	4.82916	0.13957	1.94365	0.425408	6.1049	0.560113	7.97792	0.664009	9.48456	0.917119	12.1681	0.391106	5.59433	0.540942	7.74007	0.776771	11.0444
0.344069	4.81394	0.141668	1.94759	0.42901	6.07536	0.562761	7.91066	0.666526	9.39547	0.918975	12.0439	0.395411	5.58153	0.54378	7.67833	0.777965	10.9721
0.346664	4.79578	0.143765	1.95143	0.432662	6.04729	0.565454	7.84576	0.669064	9.30899	0.920848	11.9228	0.399716	5.56905	0.54664	7.61847	0.779419	10.8863
0.349579	4.77456	0.145862	1.95517	0.436365	6.02065	0.568192	7.78314	0.671624	9.22502	0.922496	11.8199	0.404018	5.55686	0.54952	7.56043	0.781139	10.788
0.352425	4.75295	0.147958	1.95881	0.440118	5.99535	0.570975	7.72269	0.674206	9.14347	0.923911	11.734	0.408319	5.54496	0.552419	7.50414	0.78313	10.6781
0.355205	4.73099	0.150054	1.96235	0.443918	5.97134	0.573801	7.66434	0.676808	9.06424	0.925089	11.6642	0.412617	5.53332	0.555339	7.44952	0.78514	10.5712
0.35792	4.70872	0.15215	1.9658	0.447766	5.94854	0.576671	7.60799	0.679432	8.98723	0.926025	11.6097	0.416912	5.52192	0.558278	7.3965	0.787169	10.4672
0.360571	4.68617	0.154245	1.96917	0.451659	5.9269	0.579583	7.55357	0.682076	8.91238	0.926717	11.5701	0.421203	5.51076	0.561236	7.34503	0.789217	10.366
0.363161	4.66336	0.156339	1.97245	0.455595	5.90634	0.582538	7.50099	0.684742	8.83959	0.92716	11.545	0.425491	5.49981	0.564214	7.29504	0.791283	10.2675
0.365691	4.64033	0.158433	1.97564	0.459574	5.88681	0.585534	7.45019	0.687427	8.76879	0.927799	11.509	0.429774	5.48907	0.56721	7.24649	0.793367	10.1716
0.368164	4.61711	0.160527	1.97876	0.463592	5.86826	0.588571	7.40109	0.690133	8.6999	0.928496	11.4703	0.434052	5.47852	0.570224	7.19931	0.79547	10.0782
0.37058	4.59374	0.162621	1.98181	0.467649	5.85061	0.591648	7.35363	0.692858	8.63287	0.929447	11.4183	0.438325	5.46814	0.573257	7.15345	0.797591	9.98716
0.372943	4.57025	0.164714	1.98478	0.471743	5.83383	0.594764	7.30774	0.695604	8.56762	0.930656	11.3533	0.442591	5.45793	0.576308	7.10887	0.799729	9.89846
0.375254	4.54666	0.166806	1.98768	0.475871	5.81785	0.597919	7.26336	0.698369	8.50408	0.932127	11.276	0.446852	5.44788	0.579377	7.06552	0.801886	9.812
0.377516	4.52301	0.168899	1.99051	0.480032	5.80262	0.601112	7.22042	0.701153	8.44221	0.933865	11.1872	0.451105	5.43796	0.582463	7.02336	0.804059	9.7277
0.37973	4.49931	0.170991	1.99328	0.484224	5.7881	0.604342	7.17888	0.703956	8.38194	0.935876	11.0875	0.455351	5.42818	0.585567	6.98234	0.806251	9.64548
0.381899	4.47561	0.173082	1.99599	0.488444	5.77424	0.607609	7.13868	0.706779	8.32321	0.937904	10.9902	0.459589	5.41852	0.588688	6.94243	0.808459	9.56528
0.384025	4.45191	0.175174	1.99863	0.492692	5.761	0.610911	7.09976	0.709621	8.26598	0.939948	10.8952	0.463819	5.40898	0.591826	6.90359	0.810684	9.48703
0.386109	4.42824	0.177264	2.00121	0.496965	5.74834	0.614249	7.06209	0.712481	8.2102	0.94201	10.8025	0.46804	5.39954	0.594981	6.86577	0.812926	9.41066
0.388154	4.40463	0.179355	2.00374	0.501261	5.73622	0.617621	7.0256	0.71536	8.15581	0.944089	10.7119	0.472252	5.39019	0.598153	6.82896	0.815185	9.33612
0.390162	4.38109	0.181445	2.00621	0.505579	5.7246	0.621026	6.99025	0.718257	8.10277	0.946184	10.6233	0.476454	5.38092	0.601342	6.7931	0.81746	9.26333
0.392133	4.35764	0.183535	2.00862	0.509918	5.71345	0.624465	6.956	0.721172	8.05104	0.948296	10.5368	0.480645	5.37174	0.604547	6.75818	0.819752	9.19225
0.394071	4.3343	0.185625	2.01099	0.514276	5.70275	0.627935	6.92282	0.724106	8.00057	0.950424	10.4523	0.484826	5.36262	0.607769	6.72417	0.82206	9.12282
0.395977	4.31108	0.187714	2.0133	0.51865	5.69244	0.631437	6.89064	0.727058	7.95133	0.952568	10.3696	0.488995	5.35357	0.611007	6.69102	0.824384	9.05498
0.397852	4.288	0.189803	2.01557	0.523041	5.68252	0.63497	6.85945	0.730027	7.90327	0.954729	10.2888	0.493153	5.34457	0.614262	6.65872	0.826724	8.9887
0.399697	4.26506	0.191892	2.01779	0.527446	5.67296	0.638532	6.8292	0.733014	7.85637	0.956906	10.2097	0.497298	5.33562	0.617533	6.62725	0.829079	8.92391
0.401515	4.24229	0.193981	2.01996	0.531864	5.66372	0.642124	6.79986	0.736019	7.81058	0.959098	10.1324	0.50143	5.3267	0.62082	6.59656	0.831451	8.86058
0.403307	4.21968	0.196069	2.02209	0.536294	5.65479	0.645744	6.77138	0.739041	7.76587	0.961306	10.0567	0.505549	5.31782	0.624123	6.56665	0.833838	8.79865
0.405075	4.19726	0.198157	2.02417	0.540735	5.64615	0.649392	6.74375	0.74208	7.7222	0.96353	9.98269	0.509654	5.30897	0.627442	6.53749	0.83624	8.7381
0.406818	4.17502	0.200245	2.02621	0.545185	5.63778	0.653067	6.71693	0.745137	7.67955	0.96577	9.91023	0.513744	5.30014	0.630777	6.50905	0.838657	8.67887
0.40854	4.15297	0.202332	2.02821	0.549644	5.62965	0.656769	6.69089	0.748211	7.63789	0.968025	9.83929	0.517819	5.29133	0.634128	6.48132	0.84109	8.62092
0.41024	4.13113	0.20442	2.03018	0.554111	5.62175	0.660496	6.66559	0.751301	7.59719	0.970295	9.76985	0.521879	5.28252	0.637496	6.45428	0.843538	8.56422
0.41192	4.1095	0.206507	2.0321	0.558584	5.61406	0.664249	6.64102	0.754409	7.55741	0.97258	9.70184	0.525923	5.27372	0.640879	6.4279	0.846	8.50874
0.413582	4.08808	0.208594	2.03399	0.563063	5.60657	0.668026	6.61715	0.757534	7.51854	0.97488	9.63524	0.52995	5.26491	0.644278	6.40216	0.848477	8.45443
0.415226	4.06687	0.21068	2.03584	0.567546	5.59927	0.671827	6.59394	0.760675	7.48055	0.977195	9.57	0.533961	5.2561	0.647693	6.37706	0.850969	8.40126
0.416853	4.04589	0.212767	2.03766	0.572033	5.59214	0.675652	6.57139	0.763833	7.4434	0.979525	9.50608	0.537953	5.24728	0.651124	6.35257	0.853476	8.34921
0.418464	4.02512	0.214853	2.03944	0.576524	5.58517	0.679498	6.54945	0.767008	7.40709	0.98187	9.44344	0.541928	5.23845	0.654571	6.32867	0.855997	8.29824
0.42006	4.00459	0.216939	2.04119	0.581016	5.57834	0.683367	6.52812	0.770199	7.37158	0.984229	9.38206	0.545884	5.22959	0.658034	6.30535	0.858532	8.24832
0.421642	3.98428	0.219025	2.0429	0.585511	5.57165	0.687258	6.50737	0.773407	7.33686	0.986603	9.3219	0.549821	5.22071	0.661513	6.2826	0.861081	8.19941
0.42321	3.9642	0.22111	2.04459	0.590006	5.56509	0.691169	6.48717	0.776631	7.3029	0.98899	9.26292	0.553739	5.2118	0.665008	6.2604	0.863645	8.15151
0.424766	3.94435	0.223196	2.04624	0.594501	5.55864	0.6951	6.46751	0.779872	7.26968	0.991392	9.20509	0.557636	5.20285	0.668519	6.23873	0.866222	8.10456
0.42631	3.92473	0.225281	2.04787	0.598996	5.5523	0.699052	6.44838	0.783129	7.23719	0.993808	9.14838	0.561513	5.19388	0.672046	6.21758	0.868813	8.05856
0.427843	3.90535	0.227366	2.04946	0.60349	5.54605	0.703022	6.42974	0.786403	7.2054	0.996238	9.09276	0.565369	5.18486	0.675589	6.19695	0.871419	8.01347
0.429366	3.8862	0.229451	2.05103	0.607982	5.5399	0.707011	6.41159	0.789692	7.1743	0.998682	9.03821	0.569203	5.1758	0.679148	6.1768	0.874037	7.96928
0.430878	3.86727	0.231536	2.05257	0.612472	5.53383	0.711018	6.3939	0.792999	7.14387	1.00114	8.98469	0.573016	5.16669	0.682723	6.15714	0.87667	7.92595
0.432382	3.84858	0.23362	2.05409	0.616959	5.52784	0.715042	6.37667	0.796321	7.11409			0.576806	5.15754	0.686314	6.13795	0.879316	7.88347
0.433876	3.83013	0.235705	2.05557	0.621443	5.52192	0.719084	6.35986	0.79966	7.08494			0.580573	5.14834	0.68992	6.11922	0.881976	7.84181
0.435363	3.8119	0.237789	2.05704	0.625923	5.51606	0.723141	6.34348	0.803015	7.05642			0.584317	5.13908	0.693543	6.10093	0.884648	7.80095
0.436842	3.7939	0.239873	2.05847	0.630398	5.51026	0.727215	6.3275	0.806386	7.0285			0.588038	5.12977	0.697182	6.08309	0.887335	7.76088
