Sym0		Asym0		Sym1		Sym2		Sym3		Sym4		Asym1		Asym2		Asym3	
464  Points		496  Points		213  Points		180  Points		166  Points		117  Points		323  Points		191  Points		156  Points	
Freq (MHz)	Vph (m/ms)	Freq (MHz)	Vph (m/ms)	Freq (MHz)	Vph (m/ms)	Freq (MHz)	Vph (m/ms)	Freq (MHz)	Vph (m/ms)	Freq (MHz)	Vph (m/ms)	Freq (MHz)	Vph (m/ms)	Freq (MHz)	Vph (m/ms)	Freq (MHz)	Vph (m/ms)
0.00144804	5.71749	3.98676e-005	0.0575027	0.279511	1211.19	0.484108	2121.08	0.559027	943.136	0.838535	1143.17	0.139788	272.875	0.41927	886.226	0.698771	15817.2
0.00677474	5.71727	0.000218571	0.134504	0.27957	240.497	0.484125	417.373	0.559083	366.75	0.838572	503.584	0.140022	96.9702	0.419329	298.499	0.69879	716.067
0.0121011	5.71707	0.000539073	0.210847	0.279709	133.566	0.484165	231.478	0.559189	227.672	0.838639	322.938	0.140478	59.132	0.419447	179.52	0.698843	366.353
0.0174267	5.71676	0.000998504	0.286235	0.279927	92.5115	0.484227	160.164	0.559345	165.105	0.838736	237.697	0.141152	42.6782	0.419623	128.397	0.698929	246.166
0.0227513	5.71633	0.00159263	0.360315	0.280224	70.8073	0.484313	122.455	0.55955	129.54	0.838861	188.073	0.142041	33.5076	0.419858	99.9691	0.69905	185.377
0.0280744	5.71578	0.00231638	0.432823	0.280599	57.391	0.484422	99.1305	0.559804	106.605	0.839016	155.604	0.143138	27.6822	0.420151	81.8757	0.699205	148.683
0.0333959	5.71512	0.00316373	0.503499	0.281052	48.283	0.484554	83.2796	0.560107	90.5897	0.839201	132.708	0.144437	23.6686	0.420502	69.3524	0.699393	124.13
0.0387154	5.71434	0.00412807	0.572137	0.281584	41.6998	0.48471	71.8078	0.560459	78.776	0.839414	115.695	0.14593	20.746	0.420911	60.1735	0.699616	106.551
0.0440324	5.71343	0.00520222	0.638554	0.282192	36.723	0.48489	63.1219	0.56086	69.7042	0.839657	102.559	0.14761	18.5304	0.421378	53.1596	0.699872	93.3444
0.0493468	5.71242	0.00637899	0.702643	0.282876	32.8314	0.485094	56.3179	0.56131	62.5207	0.839929	92.1099	0.149469	16.7989	0.421903	47.6277	0.700162	83.0616
0.0546582	5.71128	0.00765075	0.764291	0.283636	29.7072	0.485322	50.8446	0.561808	56.6929	0.84023	83.6011	0.151497	15.4129	0.422485	43.1545	0.700486	74.8293
0.0599661	5.71001	0.00901026	0.82346	0.284471	27.1457	0.485575	46.3472	0.562355	51.8712	0.84056	76.5387	0.153685	14.2818	0.423124	39.4641	0.700844	68.0906
0.0652702	5.70863	0.0104502	0.880113	0.28538	25.009	0.485852	42.5866	0.562949	47.8167	0.840919	70.5833	0.156026	13.344	0.42382	36.3686	0.701235	62.4735
0.0705701	5.70711	0.0119635	0.934254	0.286362	23.2007	0.486156	39.3959	0.563591	44.3606	0.841307	65.4941	0.15851	12.556	0.424572	33.736	0.70166	57.7203
0.0758656	5.70547	0.0135436	0.985917	0.287416	21.6517	0.486485	36.6551	0.56428	41.3802	0.841725	61.0953	0.16113	11.8863	0.42538	31.4704	0.702119	53.6464
0.081156	5.70369	0.0151841	1.03513	0.28854	20.3109	0.486841	34.2758	0.565016	38.7843	0.842171	57.2557	0.163877	11.3115	0.426244	29.5009	0.702611	50.1163
0.0864411	5.70177	0.0168792	1.08197	0.289734	19.1397	0.487224	32.1911	0.565799	36.5035	0.842646	53.8754	0.166369	10.874	0.427163	27.7736	0.703136	47.0284
0.0917203	5.69972	0.0186235	1.1265	0.290997	18.1086	0.487634	30.35	0.566628	34.4841	0.84315	50.877	0.168561	10.5405	0.428138	26.2469	0.703695	44.3049
0.0969933	5.69752	0.0204118	1.16881	0.292327	17.1944	0.488073	28.7123	0.567503	32.6842	0.843682	48.1993	0.170419	10.2885	0.429167	24.8884	0.704286	41.8852
0.10226	5.69518	0.0222396	1.20897	0.293723	16.3789	0.48854	27.2464	0.568423	31.07	0.844244	45.7939	0.171916	10.1028	0.430249	23.6722	0.704911	39.7214
0.107519	5.69269	0.0241026	1.24708	0.295184	15.6474	0.489036	25.9269	0.569389	29.6146	0.844834	43.6214	0.173031	9.97338	0.431385	22.5774	0.705569	37.7752
0.11277	5.69004	0.0259969	1.28323	0.296707	14.988	0.489562	24.7331	0.570399	28.296	0.845452	41.6497	0.173752	9.89348	0.432575	21.587	0.706259	36.0157
0.118013	5.68723	0.0279191	1.31752	0.298293	14.3908	0.490118	23.6481	0.571454	27.0959	0.846099	39.8524	0.174797	9.78247	0.433817	20.6871	0.706983	34.4173
0.123248	5.68426	0.029866	1.35004	0.29994	13.8478	0.490706	22.6579	0.572553	25.9995	0.846775	38.2075	0.175945	9.66667	0.43511	19.8662	0.707738	32.9592
0.128472	5.68112	0.0318348	1.38088	0.301646	13.3522	0.491326	21.7507	0.573695	24.9939	0.847478	36.6966	0.177524	9.51684	0.436456	19.1145	0.708527	31.6238
0.133687	5.6778	0.033823	1.41013	0.303409	12.8983	0.491978	20.9169	0.57488	24.0686	0.84821	35.304	0.179553	9.33903	0.437852	18.4239	0.709347	30.3964
0.138892	5.6743	0.0358281	1.43788	0.30523	12.4814	0.492663	20.1479	0.576109	23.2145	0.848971	34.0165	0.182049	9.13984	0.439298	17.7874	0.7102	29.2646
0.144085	5.67062	0.0378483	1.4642	0.307105	12.0972	0.493382	19.4367	0.577379	22.4238	0.849759	32.8228	0.185035	8.92593	0.440794	17.1991	0.711085	28.2177
0.149266	5.66674	0.0398816	1.48919	0.309034	11.7422	0.494137	18.7773	0.578691	21.6899	0.850575	31.7131	0.188535	8.70359	0.44234	16.654	0.712002	27.2467
0.154434	5.66265	0.041663	1.50993	0.311015	11.4134	0.494926	18.1642	0.580045	21.0071	0.851419	30.6788	0.192109	8.50285	0.443934	16.1476	0.71295	26.3438
0.159589	5.65835	0.0431877	1.52689	0.313048	11.1082	0.495752	17.5929	0.581439	20.3702	0.852291	29.7127	0.195751	8.32095	0.445575	15.6761	0.71393	25.502
0.164729	5.65384	0.0444524	1.54043	0.314859	10.8596	0.496616	17.0595	0.582874	19.775	0.853191	28.8084	0.199459	8.15555	0.447265	15.2361	0.714942	24.7156
0.169854	5.64909	0.0454547	1.55084	0.316433	10.6595	0.497517	16.5604	0.584349	19.2176	0.854118	27.9601	0.203228	8.0047	0.449	14.8247	0.715985	23.9793
0.174963	5.64411	0.0461928	1.55834	0.317754	10.5015	0.498457	16.0927	0.585864	18.6946	0.855072	27.1629	0.207054	7.86671	0.450782	14.4393	0.717059	23.2886
0.180054	5.63888	0.0466658	1.56306	0.318811	10.3812	0.499437	15.6534	0.587418	18.203	0.856054	26.4123	0.210934	7.74014	0.452609	14.0777	0.718164	22.6394
0.185128	5.63339	0.0473463	1.56976	0.319595	10.2952	0.500457	15.2404	0.589011	17.7402	0.857064	25.7046	0.214864	7.62373	0.454481	13.7378	0.719299	22.0282
0.190182	5.62762	0.0480868	1.57692	0.3201	10.2412	0.501518	14.8513	0.590642	17.3038	0.8581	25.0361	0.218843	7.51641	0.456397	13.4179	0.720465	21.4519
0.195215	5.62158	0.0490953	1.58644	0.320831	10.165	0.502622	14.4844	0.592311	16.8916	0.859163	24.4037	0.222866	7.41724	0.458357	13.1162	0.721662	20.9075
0.200226	5.61524	0.0503728	1.59817	0.32163	10.084	0.503768	14.1378	0.594018	16.5018	0.860254	23.8047	0.226932	7.32541	0.460359	12.8314	0.722888	20.3926
0.205215	5.60858	0.0519205	1.61188	0.322726	9.97681	0.504959	13.8101	0.595761	16.1327	0.861371	23.2366	0.231037	7.24018	0.462403	12.5622	0.724145	19.9049
0.210178	5.60161	0.0537396	1.62733	0.324127	9.84592	0.506194	13.4999	0.597541	15.7827	0.862515	22.697	0.23518	7.16093	0.464489	12.3073	0.725432	19.4423
0.215116	5.59429	0.0558311	1.64428	0.325844	9.69426	0.507474	13.2059	0.599358	15.4505	0.863685	22.1839	0.239358	7.0871	0.466616	12.0658	0.726748	19.0031
0.220026	5.58662	0.0579265	1.66043	0.327888	9.525	0.508801	12.9271	0.60121	15.1347	0.864882	21.6954	0.24357	7.01819	0.468782	11.8367	0.728093	18.5855
0.224906	5.57857	0.0600249	1.67582	0.330274	9.34147	0.510176	12.6622	0.603098	14.8343	0.866105	21.2299	0.247813	6.95376	0.470989	11.619	0.729468	18.188
0.229756	5.57013	0.062126	1.69051	0.332701	9.1685	0.511598	12.4105	0.605021	14.5482	0.867354	20.7859	0.252085	6.89342	0.473234	11.4121	0.730872	17.8093
0.234573	5.56129	0.0642294	1.70453	0.335169	9.00529	0.513069	12.1711	0.606978	14.2755	0.868629	20.3618	0.256385	6.83682	0.475517	11.2152	0.732304	17.4481
0.239354	5.55202	0.0663346	1.71792	0.337676	8.85111	0.514589	11.9432	0.60897	14.0152	0.869931	19.9564	0.260711	6.78364	0.477537	11.0512	0.733766	17.1032
0.244099	5.5423	0.0684412	1.73072	0.340224	8.70529	0.51616	11.7261	0.610995	13.7666	0.871257	19.5686	0.265061	6.73359	0.479282	10.9167	0.735255	16.7737
0.248805	5.53211	0.070549	1.74295	0.342811	8.56724	0.517781	11.5192	0.613053	13.529	0.87261	19.1973	0.269434	6.68644	0.480739	10.809	0.736773	16.4585
0.253469	5.52144	0.0726577	1.75466	0.345436	8.43642	0.519455	11.3217	0.615145	13.3016	0.873988	18.8414	0.273829	6.64193	0.481902	10.726	0.738318	16.1567
0.25809	5.51026	0.0747671	1.76587	0.348101	8.31235	0.520955	11.157	0.617269	13.084	0.875391	18.5001	0.278245	6.59988	0.482762	10.6662	0.739891	15.8676
0.262664	5.49855	0.0768771	1.77661	0.350804	8.19459	0.522266	11.0217	0.619426	12.8754	0.87682	18.1724	0.282679	6.56008	0.483315	10.6284	0.741492	15.5905
0.26719	5.48629	0.0789873	1.7869	0.353546	8.08273	0.523373	10.9132	0.621615	12.6754	0.878273	17.8577	0.287131	6.52237	0.484112	10.5747	0.74312	15.3245
0.271665	5.47346	0.0810977	1.79677	0.356327	7.97641	0.524262	10.8296	0.623835	12.4835	0.879752	17.5552	0.291599	6.48659	0.484984	10.5173	0.744775	15.0691
0.276086	5.46004	0.0832081	1.80625	0.359148	7.8753	0.524924	10.7692	0.626086	12.2993	0.881255	17.2643	0.296083	6.4526	0.486176	10.4407	0.746457	14.8237
0.280451	5.44602	0.0853184	1.81534	0.362008	7.77909	0.525351	10.7311	0.628367	12.1222	0.882783	16.9842	0.300581	6.42027	0.487696	10.3462	0.748166	14.5877
0.284756	5.43136	0.0874286	1.82408	0.364909	7.68752	0.52597	10.677	0.63068	11.952	0.884335	16.7144	0.305093	6.38948	0.489552	10.2353	0.749901	14.3607
0.289001	5.41607	0.0895384	1.83248	0.367851	7.60033	0.526649	10.6191	0.633022	11.7883	0.885912	16.4545	0.309617	6.36012	0.491752	10.1097	0.751662	14.1421
0.293181	5.40011	0.091648	1.84056	0.370836	7.51729	0.527585	10.5417	0.635394	11.6306	0.887512	16.2038	0.314152	6.3321	0.494308	9.97122	0.753449	13.9315
0.297294	5.38349	0.0937571	1.84833	0.373864	7.43819	0.528786	10.4463	0.637796	11.4788	0.889137	15.962	0.318698	6.30532	0.496896	9.83853	0.755261	13.7285
0.301339	5.3662	0.0958659	1.85581	0.376937	7.36284	0.530267	10.3342	0.639912	11.3511	0.890785	15.7285	0.323253	6.27969	0.499517	9.71128	0.757099	13.5327
0.305312	5.34821	0.0979742	1.86303	0.380055	7.29106	0.532043	10.2073	0.641733	11.2453	0.892458	15.503	0.327817	6.25514	0.502169	9.58915	0.758962	13.3438
0.309212	5.32955	0.100082	1.86998	0.38322	7.22268	0.534133	10.0675	0.643251	11.16	0.894153	15.285	0.332389	6.23159	0.504853	9.47187	0.760851	13.1614
0.313036	5.31019	0.102189	1.87668	0.386434	7.15756	0.536278	9.93347	0.644459	11.0938	0.895872	15.0743	0.336968	6.20899	0.507566	9.35918	0.762764	12.9852
0.316784	5.29016	0.104296	1.88315	0.389697	7.09555	0.53848	9.80504	0.645351	11.0459	0.897615	14.8705	0.341554	6.18726	0.51031	9.25085	0.764701	12.8149
0.320454	5.26946	0.106402	1.88939	0.393011	7.03652	0.540739	9.68191	0.645924	11.0156	0.89938	14.6733	0.346145	6.16635	0.513083	9.14663	0.766663	12.6503
0.324044	5.2481	0.108507	1.89542	0.396377	6.98035	0.543053	9.56381	0.646751	10.9724	0.901168	14.4823	0.35074	6.14621	0.515884	9.04632	0.768649	12.491
0.327555	5.2261	0.110612	1.90124	0.399796	6.92691	0.545424	9.4505	0.647652	10.926	0.902979	14.2974	0.35534	6.12678	0.518714	8.94973	0.770659	12.3369
0.330986	5.20348	0.112717	1.90688	0.40327	6.8761	0.547852	9.34175	0.648884	10.8638	0.904812	14.1181	0.359943	6.10803	0.521572	8.85666	0.772692	12.1877
0.334336	5.18027	0.11482	1.91233	0.406799	6.8278	0.550336	9.23735	0.650451	10.7867	0.906668	13.9444	0.364549	6.0899	0.524457	8.76695	0.774748	12.0431
0.337605	5.15649	0.116924	1.9176	0.410383	6.78191	0.552876	9.1371	0.65236	10.6956	0.908546	13.7758	0.369157	6.07236	0.527368	8.68042	0.776828	11.9031
0.340796	5.13219	0.119026	1.9227	0.414024	6.73833	0.555472	9.0408	0.654618	10.5917	0.910447	13.6124	0.373766	6.05538	0.530306	8.59694	0.778931	11.7673
0.343907	5.10738	0.121128	1.92764	0.417722	6.69697	0.558124	8.94827	0.657235	10.4761	0.912369	13.4537	0.378376	6.0389	0.53327	8.51636	0.780782	11.6523
0.346941	5.08212	0.123229	1.93243	0.421476	6.65771	0.560831	8.85934	0.659878	10.3643	0.914313	13.2996	0.382985	6.02292	0.536259	8.43853	0.782373	11.5567
0.349898	5.05643	0.12533	1.93708	0.425287	6.62047	0.563594	8.77384	0.662548	10.2561	0.916278	13.15	0.387594	6.00738	0.539273	8.36334	0.783698	11.4792
0.352781	5.03036	0.127431	1.94158	0.429154	6.58516	0.566411	8.69163	0.665244	10.1515	0.918265	13.0046	0.392202	5.99226	0.542312	8.29067	0.784752	11.419
0.355591	5.00395	0.12953	1.94595	0.433076	6.55167	0.569282	8.61256	0.667965	10.0501	0.920273	12.8633	0.396808	5.97754	0.545374	8.22041	0.78553	11.3752
0.357982	4.98069	0.131629	1.95019	0.437052	6.51993	0.572207	8.53648	0.670712	9.95192	0.922302	12.726	0.401411	5.96319	0.54846	8.15244	0.78603	11.3475
0.359979	4.96071	0.133728	1.9543	0.441081	6.48983	0.575185	8.46327	0.673484	9.85678	0.924352	12.5924	0.406011	5.94918	0.55157	8.08667	0.786749	11.3079
0.361602	4.94408	0.135826	1.9583	0.445162	6.4613	0.578215	8.3928	0.676281	9.76457	0.926423	12.4624	0.410607	5.93549	0.554703	8.023	0.787535	11.2653
0.362868	4.93088	0.137924	1.96219	0.449293	6.43424	0.581297	8.32495	0.679103	9.67516	0.928515	12.3359	0.415198	5.92211	0.557858	7.96135	0.788607	11.2081
0.363789	4.92114	0.140021	1.96596	0.453472	6.40858	0.58443	8.25961	0.681949	9.58844	0.930627	12.2128	0.419785	5.909	0.561035	7.90163	0.789971	11.1369
0.364374	4.9149	0.142118	1.96963	0.457697	6.38423	0.587613	8.19667	0.68482	9.50429	0.932759	12.0929	0.424366	5.89615	0.564234	7.84377	0.791631	11.0524
0.365209	4.90591	0.144214	1.97321	0.461966	6.36111	0.590845	8.13602	0.687714	9.42262	0.934633	11.991	0.42894	5.88355	0.567455	7.78768	0.793593	10.9556
0.36611	4.89611	0.14631	1.97668	0.466278	6.33916	0.594126	8.07756	0.690632	9.34333	0.936243	11.906	0.433508	5.87117	0.570698	7.73329	0.795865	10.8475
0.367321	4.88277	0.148405	1.98007	0.47063	6.31829	0.597455	8.02122	0.693574	9.26633	0.937583	11.8368	0.438068	5.859	0.573961	7.68055	0.798157	10.7423
0.368833	4.86585	0.1505	1.98336	0.475019	6.29844	0.60083	7.96688	0.696539	9.19153	0.938647	11.783	0.44262	5.84702	0.577245	7.62938	0.800471	10.64
0.370632	4.84534	0.152594	1.98657	0.479444	6.27954	0.604252	7.91447	0.699527	9.11885	0.939433	11.7438	0.447162	5.83521	0.58055	7.57972	0.802805	10.5405
0.372702	4.82122	0.154688	1.9897	0.483903	6.26153	0.607718	7.86391	0.702538	9.04821	0.939937	11.7189	0.451696	5.82357	0.583875	7.53151	0.805159	10.4437
0.375026	4.79351	0.156782	1.99274	0.488393	6.24435	0.611229	7.81511	0.705572	8.97953	0.940663	11.6833	0.45622	5.81207	0.58722	7.48471	0.807533	10.3494
0.377296	4.76578	0.158875	1.99572	0.492913	6.22795	0.614782	7.76802	0.708628	8.91275	0.941455	11.6451	0.460732	5.80071	0.590585	7.43926	0.809928	10.2576
0.379517	4.73806	0.160968	1.99861	0.49746	6.21226	0.618378	7.72254	0.711707	8.84779	0.942537	11.5935	0.465234	5.78948	0.59397	7.39511	0.812342	10.1682
0.381689	4.71039	0.16306	2.00144	0.502032	6.19725	0.622016	7.67862	0.714808	8.78459	0.94391	11.5293	0.469723	5.77835	0.597375	7.35221	0.814775	10.0811
0.383815	4.68278	0.165152	2.0042	0.506627	6.18287	0.625693	7.63619	0.717931	8.72308	0.945581	11.4529	0.4742	5.76732	0.600798	7.31052	0.817228	9.99621
0.385897	4.65527	0.167244	2.00689	0.511244	6.16907	0.62941	7.59518	0.721075	8.66322	0.947555	11.365	0.478664	5.75638	0.604241	7.26999	0.819701	9.91347
0.387937	4.62787	0.169335	2.00952	0.51588	6.1558	0.633165	7.55555	0.724242	8.60494	0.949838	11.2665	0.483114	5.74552	0.607703	7.23059	0.822192	9.8328
0.389939	4.60061	0.171426	2.01209	0.520534	6.14305	0.636957	7.51723	0.72743	8.54819	0.95214	11.1703	0.487549	5.73472	0.611184	7.19228	0.824702	9.75414
0.391902	4.5735	0.173517	2.0146	0.525204	6.13075	0.640786	7.48016	0.730639	8.49292	0.95446	11.0765	0.491969	5.72398	0.614684	7.15502	0.82723	9.6774
0.39383	4.54656	0.175607	2.01705	0.52989	6.1189	0.64465	7.44431	0.73387	8.43908	0.956799	10.9849	0.496373	5.71329	0.618203	7.11878	0.829777	9.60254
0.395723	4.51981	0.177698	2.01945	0.534588	6.10744	0.648549	7.40961	0.737122	8.38662	0.959156	10.8954	0.500761	5.70264	0.621741	7.08352	0.832342	9.52947
0.397585	4.49326	0.179787	2.02179	0.539298	6.09636	0.652481	7.37602	0.740395	8.3355	0.961532	10.808	0.505131	5.69202	0.625297	7.04921	0.834926	9.45816
0.399416	4.46692	0.181877	2.02408	0.544019	6.08563	0.656446	7.3435	0.743689	8.28568	0.963925	10.7226	0.509484	5.68141	0.628872	7.01582	0.837527	9.38854
0.401218	4.4408	0.183966	2.02632	0.548748	6.07522	0.660442	7.312	0.747004	8.23711	0.966336	10.6391	0.513818	5.67083	0.632465	6.98332	0.840146	9.32055
0.402993	4.41492	0.186055	2.02852	0.553485	6.0651	0.66447	7.28147	0.75034	8.18976	0.968765	10.5576	0.518133	5.66025	0.636077	6.95169	0.842782	9.25415
0.404742	4.38928	0.188144	2.03066	0.558229	6.05527	0.668527	7.25189	0.753697	8.14358	0.971212	10.4779	0.522428	5.64967	0.639707	6.92089	0.845436	9.18928
0.406466	4.36388	0.190233	2.03276	0.562979	6.04569	0.672613	7.22321	0.757075	8.09855	0.973676	10.3999	0.526703	5.63908	0.643356	6.89091	0.848108	9.1259
0.408168	4.33875	0.192321	2.03482	0.567733	6.03635	0.676727	7.1954	0.760473	8.05463	0.976158	10.3237	0.530957	5.62848	0.647024	6.86171	0.850796	9.06396
0.409847	4.31388	0.194409	2.03683	0.572491	6.02722	0.680868	7.16842	0.763892	8.01178	0.978656	10.2491	0.535189	5.61786	0.650709	6.83328	0.853501	9.00341
0.411505	4.28927	0.196497	2.0388	0.577251	6.01831	0.685035	7.14223	0.767332	7.96998	0.981172	10.1762	0.539399	5.60721	0.654413	6.80559	0.856223	8.94422
0.413144	4.26494	0.198584	2.04073	0.582013	6.00958	0.689228	7.11681	0.770792	7.92919	0.983704	10.1048	0.543586	5.59653	0.658136	6.77862	0.858962	8.88634
0.414765	4.24088	0.200671	2.04263	0.586775	6.00102	0.693445	7.09213	0.774274	7.88938	0.986253	10.0349	0.547749	5.58582	0.661877	6.75236	0.861718	8.82974
0.416368	4.21709	0.202759	2.04448	0.591538	5.99263	0.697686	7.06815	0.777776	7.85054	0.988818	9.96655	0.551889	5.57506	0.665636	6.72677	0.864489	8.77437
0.417955	4.19359	0.204845	2.0463	0.596299	5.98438	0.701949	7.04485	0.781298	7.81262	0.9914	9.89961	0.556003	5.56425	0.669413	6.70184	0.867277	8.72021
0.419526	4.17037	0.206932	2.04809	0.601059	5.97627	0.706235	7.02219	0.784842	7.77562	0.993998	9.83406	0.560092	5.55339	0.673209	6.67756	0.870082	8.66721
0.421082	4.14743	0.209019	2.04983	0.605817	5.96828	0.710541	7.00016	0.788406	7.73949	0.996612	9.76987	0.564156	5.54248	0.677023	6.6539	0.872902	8.61534
0.422625	4.12477	0.211105	2.05155	0.610571	5.96042	0.714868	6.97873	0.791992	7.70422	0.999242	9.70699	0.568193	5.53151	0.680855	6.63085	0.875738	8.56458
0.424155	4.1024	0.213191	2.05323	0.615322	5.95265	0.719214	6.95788	0.795598	7.66979	1.00189	9.64539	0.572203	5.52048	0.684706	6.60838	0.87859	8.51489
0.425672	4.08031	0.215277	2.05488	0.620069	5.94499	0.723579	6.93757	0.799225	7.63617			0.576185	5.50938	0.688575	6.58649	0.881458	8.46623
0.427178	4.0585	0.217363	2.0565	0.62481	5.93741	0.727962	6.9178	0.802874	7.60335			0.58014	5.49821	0.692461	6.56516	0.884341	8.41859
0.428674	4.03697	0.219448	2.05809	0.629546	5.92991	0.732362	6.89853	0.806544	7.5713			0.584066	5.48697	0.696366	6.54438	0.887239	8.37193
0.430159	4.01572	0.221534	2.05965	0.634276	5.92249	0.736778	6.87975	0.810235	7.54001			0.587964	5.47566	0.700289	6.52412	0.890154	8.32623
0.431635	3.99476	0.223619	2.06119	0.638999	5.91513	0.741209	6.86144	0.813948	7.50945			0.591832	5.46427	0.70423	6.50437	0.893083	8.28146
0.433102	3.97406	0.225704	2.06269	0.643715	5.90783	0.745655	6.84357	0.817683	7.47962			0.595671	5.45281	0.708188	6.48512	0.896027	8.23759
0.434561	3.95365	0.227789	2.06417	0.648423	5.90059	0.750115	6.82613	0.82144	7.45048			0.59948	5.44127	0.712164	6.46636	0.898987	8.19461
0.436011	3.93351	0.229874	2.06562	0.653123	5.89339	0.754588	6.80911	0.825219	7.42204			0.603259	5.42965	0.716157	6.44807	0.901962	8.15249
0.437455	3.91364	0.231959	2.06705	0.657815	5.88624	0.759074	6.79248	0.82902	7.39426			0.607007	5.41795	0.720168	6.43024	0.904951	8.1112
0.438892	3.89403	0.234043	2.06845	0.662497	5.87912	0.763571	6.77622	0.832843	7.36714			0.610724	5.40617	0.724195	6.41285	0.907956	8.07073
0.440323	3.8747	0.236128	2.06983	0.66717	5.87204	0.768079	6.76033	0.836689	7.34067			0.61441	5.39431	0.72824	6.3959	0.910975	8.03106
0.441748	3.85563	0.238212	2.07118	0.671833	5.86499	0.772596	6.74479	0.840558	7.31482			0.618065	5.38237	0.732301	6.37937	0.914008	7.99216
0.443167	3.83681	0.240296	2.07252	0.676485	5.85796	0.777124	6.72957	0.844451	7.28959			0.621688	5.37035	0.736378	6.36324	0.917057	7.95401
