Sym0		Asym0		Sym1		Sym2		Sym3		Sym4		Asym1		Asym2		Asym3	
464  Points		496  Points		213  Points		180  Points		166  Points		117  Points		323  Points		191  Points		156  Points	
Freq (MHz)	Vgr (m/ms)	Freq (MHz)	Vgr (m/ms)	Freq (MHz)	Vgr (m/ms)	Freq (MHz)	Vgr (m/ms)	Freq (MHz)	Vgr (m/ms)	Freq (MHz)	Vgr (m/ms)	Freq (MHz)	Vgr (m/ms)	Freq (MHz)	Vgr (m/ms)	Freq (MHz)	Vgr (m/ms)
0.00108422	5.71726	3.98295e-005	0.191695	0.279511	0.062715	0.484231	0.0183331	0.559026	0.0594757	0.838534	0.039596	0.139787	0.249714	0.41927	0.0622954	0.698771	0.0191176
0.00641096	5.71708	0.00021843	0.267861	0.279569	0.105297	0.484248	0.0306252	0.559082	0.0860526	0.838571	0.055382	0.14002	0.368631	0.419328	0.0937734	0.698789	0.0374022
0.0117374	5.71649	0.00053896	0.418505	0.279707	0.190343	0.484288	0.0551967	0.559187	0.139197	0.838637	0.0868463	0.140474	0.604824	0.419445	0.15664	0.698841	0.0738722
0.017063	5.71552	0.000998268	0.565325	0.279924	0.27518	0.484351	0.079877	0.559341	0.192311	0.838733	0.118281	0.141147	0.836977	0.41962	0.219385	0.698927	0.110338
0.0223876	5.71424	0.00159238	0.707206	0.28022	0.359675	0.484437	0.104701	0.559545	0.245292	0.838858	0.149729	0.142034	1.06383	0.419853	0.282032	0.699047	0.146867
0.0277109	5.71263	0.00231607	0.843093	0.280594	0.443776	0.484546	0.129667	0.559798	0.298153	0.839012	0.181132	0.143129	1.28426	0.420145	0.344559	0.6992	0.183305
0.0330325	5.71066	0.00316339	0.972191	0.281047	0.527383	0.484678	0.154844	0.560101	0.350849	0.839195	0.212515	0.144427	1.49712	0.420495	0.406917	0.699388	0.219705
0.0383521	5.70833	0.00412764	1.09394	0.281577	0.610369	0.484834	0.180294	0.560452	0.40336	0.839408	0.243862	0.145919	1.70172	0.420904	0.469084	0.69961	0.256105
0.0436693	5.70564	0.00520182	1.20794	0.282184	0.692699	0.485014	0.205999	0.560852	0.45572	0.839649	0.275208	0.147598	1.89756	0.42137	0.531017	0.699865	0.292431
0.0489839	5.70254	0.00637849	1.31399	0.282868	0.774229	0.485218	0.231994	0.561301	0.507779	0.839921	0.306553	0.149455	2.08424	0.421893	0.592699	0.700155	0.32868
0.0542954	5.69905	0.00765029	1.41205	0.283627	0.854965	0.485446	0.258423	0.561799	0.559602	0.840221	0.337821	0.151481	2.26159	0.422474	0.654101	0.700478	0.364924
0.0596034	5.69521	0.00900969	1.50226	0.284461	0.934772	0.4857	0.285207	0.562344	0.611174	0.84055	0.36901	0.153669	2.42954	0.423112	0.715161	0.700835	0.401083
0.0649078	5.69097	0.0104496	1.58484	0.285369	1.01353	0.485978	0.312406	0.562937	0.662388	0.840908	0.400186	0.156009	2.58827	0.423807	0.775903	0.701225	0.437147
0.0702079	5.68631	0.0119629	1.66006	0.286349	1.09127	0.486282	0.340073	0.563578	0.713327	0.841296	0.431337	0.158492	2.738	0.424558	0.836305	0.701649	0.473167
0.0755036	5.68124	0.0135429	1.72839	0.287402	1.16789	0.486612	0.368232	0.564267	0.763935	0.841712	0.462438	0.161111	2.87897	0.425365	0.896318	0.702107	0.509099
0.0807943	5.67571	0.0151835	1.79011	0.288525	1.24326	0.486968	0.396939	0.565002	0.814175	0.842157	0.493439	0.163857	3.0117	0.426228	0.955918	0.702598	0.544926
0.0860796	5.66969	0.0168786	1.84575	0.289719	1.31738	0.487351	0.426154	0.565784	0.864045	0.842632	0.524386	0.166347	3.12098	0.427146	1.01506	0.703122	0.580693
0.0913591	5.66324	0.0186229	1.89579	0.29098	1.39027	0.487762	0.455948	0.566612	0.91354	0.843135	0.555299	0.168539	3.20959	0.428119	1.07372	0.70368	0.616337
0.0966325	5.65633	0.0204112	1.94058	0.292309	1.46179	0.488201	0.486384	0.567486	0.962653	0.843666	0.586142	0.170396	3.27977	0.429147	1.13195	0.704271	0.65181
0.101899	5.64888	0.0222389	1.98064	0.293704	1.53193	0.488668	0.517446	0.568406	1.01129	0.844227	0.616922	0.171893	3.33321	0.430229	1.18965	0.704895	0.687234
0.107159	5.64087	0.0241019	2.01638	0.295164	1.60067	0.489165	0.549176	0.56937	1.05957	0.844816	0.647573	0.173008	3.37169	0.431364	1.24684	0.705551	0.722559
0.11241	5.63232	0.0259962	2.04815	0.296687	1.6679	0.489692	0.581581	0.57038	1.10743	0.845433	0.678186	0.173729	3.39575	0.432552	1.30349	0.706241	0.75776
0.117654	5.62321	0.0279184	2.0764	0.298272	1.73375	0.490249	0.614677	0.571434	1.15481	0.84608	0.708724	0.174774	3.42946	0.433793	1.35959	0.706963	0.792787
0.122888	5.61349	0.0298654	2.10141	0.299917	1.79812	0.490837	0.648495	0.572532	1.2018	0.846754	0.739184	0.175921	3.46555	0.435085	1.4151	0.707718	0.827683
0.128114	5.60312	0.0318342	2.12352	0.301622	1.86095	0.491457	0.683099	0.573673	1.24833	0.847457	0.769562	0.1775	3.51319	0.436429	1.47001	0.708506	0.862466
0.133329	5.59205	0.0338223	2.14306	0.303385	1.9223	0.49211	0.71847	0.574858	1.29436	0.848188	0.799777	0.179528	3.57136	0.437825	1.52433	0.709325	0.897096
0.138534	5.58032	0.0358275	2.16023	0.305204	1.98224	0.492796	0.754642	0.576085	1.33993	0.848947	0.829958	0.182024	3.63883	0.43927	1.57803	0.710177	0.931565
0.143728	5.56784	0.0378477	2.17531	0.307079	2.04066	0.493516	0.79161	0.577355	1.38506	0.849735	0.860071	0.185009	3.71399	0.440765	1.63108	0.711061	0.965859
0.148909	5.55453	0.039881	2.18864	0.309007	2.09758	0.494271	0.829363	0.578666	1.42976	0.85055	0.890048	0.188509	3.79542	0.442309	1.68349	0.711977	1.00002
0.154078	5.54042	0.0416624	2.19889	0.310987	2.15307	0.495061	0.868028	0.580019	1.47397	0.851393	0.919899	0.192082	3.87198	0.443902	1.7353	0.712925	1.034
0.159233	5.52547	0.0431871	2.20672	0.313019	2.2072	0.495888	0.907493	0.581413	1.51772	0.852264	0.949645	0.195724	3.94395	0.445543	1.78639	0.713904	1.06783
0.164374	5.50955	0.0444518	2.21254	0.31483	2.25335	0.496753	0.947825	0.582847	1.56097	0.853163	0.979328	0.199431	4.01155	0.447231	1.8368	0.714914	1.10151
0.169499	5.49265	0.0454541	2.2169	0.316403	2.29178	0.497655	0.989083	0.584321	1.60375	0.854089	1.00888	0.203199	4.07508	0.448965	1.88657	0.715956	1.13495
0.174609	5.47475	0.0461923	2.21996	0.317724	2.32305	0.498596	1.03117	0.585836	1.64611	0.855043	1.03833	0.207024	4.13486	0.450746	1.93565	0.717029	1.16821
0.179701	5.45573	0.0466652	2.22169	0.31878	2.34747	0.499576	1.07418	0.587389	1.68797	0.856024	1.06764	0.210904	4.19104	0.452572	1.98399	0.718133	1.20132
0.184775	5.43555	0.0473457	2.22417	0.319565	2.36523	0.500597	1.11809	0.588981	1.72935	0.857032	1.09681	0.214834	4.24389	0.454443	2.03169	0.719268	1.23424
0.18983	5.41415	0.0480863	2.22684	0.320069	2.37647	0.50166	1.16292	0.590611	1.7703	0.858068	1.12593	0.218812	4.29364	0.456358	2.07866	0.720433	1.26695
0.194864	5.39144	0.0490947	2.23009	0.320799	2.39251	0.502764	1.20864	0.59228	1.81082	0.85913	1.15487	0.222834	4.34045	0.458317	2.12492	0.721629	1.29943
0.199876	5.36732	0.0503723	2.234	0.321598	2.40988	0.503912	1.25524	0.593986	1.85083	0.860219	1.18366	0.2269	4.38455	0.460318	2.1705	0.722854	1.33172
0.204865	5.34171	0.05192	2.23819	0.322694	2.43321	0.505103	1.30282	0.595728	1.89036	0.861336	1.21233	0.231005	4.42604	0.462361	2.21536	0.72411	1.36386
0.20983	5.31459	0.0537391	2.24253	0.324095	2.46233	0.506339	1.35124	0.597508	1.9295	0.862479	1.24089	0.235147	4.4651	0.464446	2.25952	0.725396	1.39575
0.214768	5.28585	0.0558306	2.24692	0.325812	2.49702	0.507621	1.40055	0.599324	1.96817	0.863648	1.26935	0.239325	4.50192	0.466571	2.30296	0.726711	1.42738
0.219679	5.25532	0.0579259	2.25065	0.327855	2.53697	0.508949	1.45076	0.601175	2.00638	0.864844	1.29765	0.243536	4.53651	0.468737	2.34567	0.728056	1.45886
0.224561	5.22296	0.0600244	2.25376	0.33024	2.58203	0.510324	1.50181	0.603063	2.0442	0.866066	1.32575	0.247778	4.56911	0.470942	2.38773	0.729429	1.4901
0.229412	5.18871	0.0621256	2.25634	0.332667	2.62625	0.511748	1.55374	0.604985	2.08154	0.867314	1.35375	0.25205	4.59977	0.473186	2.42906	0.730832	1.52108
0.23423	5.15236	0.0642289	2.25855	0.335134	2.6697	0.51322	1.60648	0.606941	2.11843	0.868589	1.38163	0.256349	4.62858	0.475469	2.4697	0.732264	1.55193
0.239013	5.11388	0.0663341	2.26031	0.337641	2.7126	0.514741	1.66004	0.608932	2.15494	0.869889	1.40933	0.260675	4.65572	0.477488	2.5046	0.733724	1.58249
0.243759	5.07317	0.0684407	2.2617	0.340188	2.75499	0.516313	1.71441	0.610957	2.19102	0.871215	1.43691	0.265025	4.6812	0.479232	2.53392	0.735213	1.61278
0.248466	5.03005	0.0705486	2.26288	0.342775	2.79695	0.517936	1.76947	0.613015	2.22665	0.872566	1.46432	0.269398	4.70514	0.480689	2.55785	0.736729	1.64288
0.253132	4.98453	0.0726574	2.26372	0.3454	2.83866	0.51961	1.82525	0.615106	2.26188	0.873943	1.49158	0.273792	4.72755	0.481851	2.57665	0.738274	1.67277
0.257754	4.93649	0.0747668	2.26432	0.348064	2.88032	0.521112	1.87444	0.61723	2.29673	0.875346	1.51871	0.278207	4.74857	0.48271	2.59038	0.739846	1.70238
0.26233	4.88581	0.0768767	2.26477	0.350767	2.92198	0.522424	1.9167	0.619386	2.33113	0.876773	1.54566	0.282641	4.76827	0.483263	2.59907	0.741446	1.73178
0.266858	4.83244	0.0789869	2.26503	0.353509	2.9638	0.523531	1.95195	0.621573	2.36515	0.878226	1.57246	0.287092	4.78666	0.48406	2.61142	0.743073	1.76092
0.271335	4.7763	0.0810973	2.26513	0.35629	3.00602	0.524421	1.97999	0.623793	2.39876	0.879703	1.5991	0.29156	4.80383	0.484932	2.6249	0.744727	1.78984
0.275758	4.71734	0.0832077	2.2651	0.359111	3.04866	0.525083	2.00058	0.626043	2.432	0.881206	1.62558	0.296043	4.81982	0.486124	2.64312	0.746408	1.81851
0.280125	4.65561	0.0853181	2.26498	0.361971	3.09196	0.52551	2.01388	0.628325	2.46486	0.882732	1.65188	0.300541	4.83469	0.487643	2.66582	0.748116	1.84694
0.284433	4.59109	0.0874283	2.26473	0.364872	3.13605	0.52613	2.0331	0.630636	2.49731	0.884284	1.67804	0.305052	4.84847	0.489497	2.69303	0.74985	1.87514
0.28868	4.52373	0.0895382	2.26439	0.367815	3.18099	0.52681	2.05394	0.632978	2.52942	0.885859	1.70407	0.309576	4.86118	0.491697	2.72438	0.75161	1.90306
0.292863	4.45368	0.0916477	2.264	0.3708	3.22701	0.527746	2.08242	0.63535	2.56111	0.887459	1.72989	0.314111	4.87292	0.494252	2.75981	0.753396	1.93071
0.296979	4.38104	0.0937569	2.26359	0.373828	3.27422	0.528948	2.11864	0.63775	2.59249	0.889083	1.75555	0.318656	4.88369	0.496839	2.79466	0.755208	1.95817
0.301027	4.30593	0.0958657	2.26309	0.376901	3.32266	0.530429	2.16262	0.639866	2.61954	0.89073	1.78107	0.323211	4.89351	0.499459	2.82886	0.757045	1.9854
0.305003	4.2285	0.0979739	2.26254	0.380019	3.37236	0.532206	2.21445	0.641687	2.6424	0.892402	1.80641	0.327774	4.90241	0.502111	2.86241	0.758907	2.01232
0.308906	4.14894	0.100082	2.26201	0.383185	3.42351	0.534297	2.27426	0.643205	2.66112	0.894096	1.83154	0.332346	4.91042	0.504793	2.89533	0.760795	2.03899
0.312734	4.06753	0.102189	2.26142	0.386399	3.47611	0.536444	2.33438	0.644413	2.67591	0.895814	1.85651	0.336925	4.9176	0.507506	2.92768	0.762707	2.06545
0.316485	3.98455	0.104296	2.26083	0.389662	3.53002	0.538647	2.39469	0.645305	2.68669	0.897556	1.88135	0.341509	4.92398	0.510248	2.95946	0.764643	2.09164
0.320159	3.90025	0.106402	2.26021	0.392976	3.58529	0.540906	2.45513	0.645878	2.69349	0.89932	1.90603	0.3461	4.92951	0.51302	2.99066	0.766604	2.11758
0.323753	3.815	0.108507	2.25956	0.396343	3.64189	0.543222	2.51571	0.646704	2.70326	0.901107	1.93051	0.350695	4.93422	0.515821	3.02127	0.768589	2.14331
0.327267	3.72909	0.110612	2.25895	0.399763	3.69967	0.545594	2.57629	0.647605	2.71399	0.902917	1.95478	0.355294	4.93818	0.51865	3.0513	0.770598	2.16878
0.330702	3.64289	0.112717	2.25828	0.403237	3.7584	0.548022	2.63682	0.648836	2.72846	0.90475	1.97892	0.359897	4.94141	0.521507	3.08081	0.772631	2.19399
0.334056	3.55678	0.11482	2.25765	0.406766	3.81798	0.550507	2.69723	0.650403	2.74654	0.906605	2.00289	0.364502	4.94387	0.524391	3.10982	0.774686	2.21894
0.337329	3.47104	0.116923	2.25704	0.410351	3.87824	0.553048	2.75743	0.652312	2.76833	0.908482	2.02666	0.369109	4.94561	0.527302	3.13827	0.776765	2.24364
0.340524	3.38608	0.119026	2.25641	0.413993	3.93884	0.555646	2.81741	0.65457	2.7936	0.910381	2.05025	0.373718	4.94662	0.530239	3.16623	0.778867	2.26814
0.343639	3.30213	0.121128	2.2558	0.417691	3.99961	0.558298	2.8771	0.657186	2.82233	0.912303	2.07371	0.378327	4.94695	0.533202	3.19373	0.780717	2.28927
0.346677	3.21956	0.123229	2.25516	0.421446	4.06031	0.561007	2.93639	0.659829	2.85076	0.914245	2.09696	0.382936	4.94653	0.53619	3.22069	0.782308	2.30714
0.349638	3.13858	0.12533	2.25455	0.425257	4.12055	0.56377	2.99522	0.662498	2.87889	0.91621	2.12003	0.387544	4.94544	0.539203	3.24721	0.783633	2.32177
0.352525	3.05939	0.127431	2.25395	0.429124	4.18011	0.566588	3.05357	0.665193	2.90669	0.918196	2.14296	0.392151	4.94368	0.542241	3.27333	0.784686	2.33339
0.355339	2.98222	0.12953	2.25336	0.433046	4.23879	0.56946	3.11134	0.667914	2.93421	0.920203	2.16566	0.396756	4.94119	0.545303	3.29902	0.785464	2.34179
0.357733	2.91675	0.131629	2.25281	0.437022	4.29625	0.572386	3.16853	0.670661	2.96141	0.922231	2.18821	0.401358	4.93808	0.548388	3.32424	0.785963	2.34715
0.359733	2.86229	0.133728	2.25224	0.441052	4.3523	0.575364	3.22507	0.673433	2.98838	0.924281	2.21062	0.405957	4.93429	0.551497	3.34909	0.786683	2.35501
0.361359	2.81818	0.135826	2.25166	0.445132	4.40673	0.578395	3.28085	0.676229	3.01504	0.926351	2.23279	0.410553	4.9298	0.554629	3.37356	0.787468	2.36334
0.362626	2.78405	0.137924	2.25112	0.449263	4.45932	0.581478	3.33587	0.679051	3.04142	0.928441	2.25479	0.415144	4.92466	0.557783	3.39762	0.78854	2.37461
0.363548	2.75938	0.140021	2.25063	0.453442	4.50997	0.584611	3.39011	0.681897	3.06756	0.930552	2.27669	0.419729	4.91886	0.56096	3.42137	0.789903	2.38891
0.364134	2.74378	0.142118	2.25012	0.457667	4.55851	0.587795	3.44357	0.684767	3.09346	0.932684	2.29835	0.424309	4.91242	0.564158	3.44478	0.791562	2.40601
0.364971	2.72147	0.144214	2.24962	0.461936	4.60487	0.591028	3.49611	0.687661	3.11907	0.934557	2.31706	0.428883	4.90527	0.567379	3.46784	0.793524	2.42591
0.365872	2.69752	0.14631	2.24911	0.466247	4.64895	0.594309	3.54772	0.690579	3.14444	0.936166	2.33297	0.43345	4.89745	0.57062	3.49061	0.795795	2.44858
0.367086	2.66568	0.148405	2.24863	0.470599	4.6907	0.597639	3.59843	0.69352	3.16962	0.937505	2.346	0.438009	4.88897	0.573883	3.51309	0.798087	2.47097
0.3686	2.62626	0.1505	2.24817	0.474988	4.73014	0.601015	3.64818	0.696485	3.19454	0.938569	2.35626	0.44256	4.87981	0.577167	3.53528	0.800399	2.49315
0.370401	2.57982	0.152594	2.24773	0.479413	4.76722	0.604437	3.69696	0.699473	3.21927	0.939355	2.36379	0.447102	4.87004	0.580471	3.55722	0.802732	2.51515
0.372474	2.52715	0.154688	2.24732	0.483871	4.80202	0.607904	3.74476	0.702484	3.24376	0.939859	2.36859	0.451635	4.85955	0.583795	3.57895	0.805086	2.53689
0.374801	2.4691	0.156782	2.24686	0.488361	4.83458	0.611415	3.79154	0.705517	3.26805	0.940585	2.37554	0.456157	4.84833	0.58714	3.60048	0.807459	2.55837
0.377075	2.41352	0.158875	2.24645	0.49288	4.86485	0.614969	3.83731	0.708573	3.29218	0.941376	2.38303	0.460669	4.8365	0.590504	3.62175	0.809853	2.57974
0.379298	2.36043	0.160968	2.24606	0.497426	4.89291	0.618565	3.88202	0.711652	3.31606	0.942457	2.39308	0.465169	4.82399	0.593888	3.64282	0.812267	2.60082
0.381473	2.30979	0.16306	2.24564	0.501997	4.91891	0.622202	3.92576	0.714753	3.3398	0.94383	2.40582	0.469658	4.81078	0.597292	3.66372	0.814699	2.62169
0.383602	2.2615	0.165152	2.24529	0.506592	4.94287	0.62588	3.96843	0.717875	3.36339	0.945501	2.42117	0.474134	4.79689	0.600715	3.68446	0.817152	2.64241
0.385688	2.21557	0.167244	2.24493	0.511208	4.96484	0.629597	4.01006	0.72102	3.38683	0.947474	2.43897	0.478596	4.78229	0.604158	3.70509	0.819623	2.66284
0.387731	2.17188	0.169335	2.24456	0.515843	4.98498	0.633353	4.05068	0.724186	3.41008	0.949756	2.45928	0.483045	4.76697	0.607619	3.72558	0.822114	2.68309
0.389735	2.13033	0.171426	2.2442	0.520497	5.00326	0.637145	4.09022	0.727374	3.43317	0.952056	2.47944	0.487479	4.75099	0.6111	3.74593	0.824623	2.70322
0.391701	2.09088	0.173517	2.24383	0.525166	5.01979	0.640974	4.12874	0.730584	3.45622	0.954376	2.49944	0.491898	4.73433	0.6146	3.76618	0.827151	2.72309
0.393631	2.05339	0.175608	2.24354	0.529851	5.03476	0.644839	4.16624	0.733815	3.47909	0.956714	2.51926	0.496301	4.71691	0.618118	3.78634	0.829697	2.74277
0.395527	2.01784	0.177698	2.24325	0.534548	5.04811	0.648738	4.20275	0.737067	3.50184	0.95907	2.53887	0.500688	4.69883	0.621655	3.80642	0.832262	2.76228
0.397391	1.98413	0.179788	2.24288	0.539257	5.0599	0.65267	4.23818	0.74034	3.5245	0.961445	2.55831	0.505057	4.68005	0.625211	3.82641	0.834844	2.78159
0.399224	1.95216	0.181877	2.24259	0.543977	5.07034	0.656635	4.27263	0.743634	3.54707	0.963837	2.57762	0.509408	4.66055	0.628785	3.84638	0.837445	2.80073
0.401028	1.92188	0.183966	2.24233	0.548705	5.07941	0.660632	4.30608	0.746949	3.5696	0.966248	2.59676	0.513741	4.64036	0.632378	3.86632	0.840063	2.81971
0.402805	1.89324	0.186055	2.24202	0.553442	5.0872	0.664659	4.33851	0.750286	3.59203	0.968676	2.61571	0.518055	4.61947	0.63599	3.88617	0.842699	2.83851
0.404556	1.86609	0.188144	2.24176	0.558185	5.09373	0.668716	4.37003	0.753643	3.61442	0.971122	2.63448	0.522349	4.59788	0.639619	3.90599	0.845352	2.85713
0.406283	1.84044	0.190233	2.24148	0.562933	5.09909	0.672802	4.40052	0.757021	3.63674	0.973585	2.6531	0.526623	4.57563	0.643268	3.92579	0.848023	2.87556
0.407986	1.81615	0.192321	2.24119	0.567686	5.10338	0.676916	4.43004	0.760419	3.65908	0.976066	2.67156	0.530875	4.55264	0.646935	3.94557	0.850711	2.89386
0.409667	1.79316	0.194409	2.24098	0.572443	5.10658	0.681057	4.45865	0.763839	3.68134	0.978563	2.68984	0.535106	4.52902	0.65062	3.96535	0.853415	2.91205
0.411327	1.77149	0.196497	2.24072	0.577202	5.10881	0.685224	4.48628	0.767279	3.7036	0.981078	2.70795	0.539315	4.50473	0.654324	3.9851	0.856137	2.93001
0.412968	1.75102	0.198584	2.24048	0.581962	5.11003	0.689416	4.51295	0.77074	3.7259	0.983609	2.72594	0.5435	4.47976	0.658046	4.00485	0.858875	2.94782
0.41459	1.73167	0.200672	2.24025	0.586724	5.11035	0.693633	4.53874	0.774222	3.74819	0.986157	2.74376	0.547662	4.45417	0.661786	4.02455	0.86163	2.96555
0.416194	1.71339	0.202759	2.24003	0.591485	5.10981	0.697874	4.56361	0.777725	3.7705	0.988722	2.76135	0.5518	4.42793	0.665545	4.04425	0.864401	2.98313
0.417783	1.69615	0.204846	2.23981	0.596245	5.10845	0.702137	4.58754	0.781248	3.7929	0.991303	2.77882	0.555913	4.40108	0.669322	4.06395	0.867189	3.00052
0.419355	1.67992	0.206932	2.23955	0.601004	5.1063	0.706422	4.61057	0.784792	3.81534	0.9939	2.7962	0.560001	4.37359	0.673118	4.08357	0.869992	3.01779
0.420913	1.66466	0.209019	2.23939	0.60576	5.10336	0.710728	4.6327	0.788357	3.8378	0.996513	2.81335	0.564063	4.34553	0.676932	4.1032	0.872812	3.03496
0.422457	1.65026	0.211105	2.23919	0.610514	5.09972	0.715055	4.65398	0.791944	3.86035	0.999142	2.83035	0.568098	4.31692	0.680764	4.12279	0.875648	3.052
0.423988	1.63668	0.213191	2.23895	0.615263	5.09538	0.719401	4.67437	0.795551	3.88305	1.00179	2.83885	0.572107	4.28775	0.684614	4.14229	0.878499	3.06891
0.425507	1.62396	0.215277	2.23879	0.620008	5.09032	0.723765	4.6939	0.799179	3.90583			0.576088	4.25808	0.688482	4.16175	0.881366	3.08567
0.427014	1.612	0.217363	2.2386	0.624748	5.08467	0.728147	4.71252	0.802829	3.92871			0.580041	4.22786	0.692369	4.18111	0.884249	3.10233
0.428511	1.60074	0.219449	2.2384	0.629483	5.07841	0.732546	4.7303	0.8065	3.95177			0.583966	4.19719	0.696273	4.20042	0.887147	3.11894
0.429997	1.59021	0.221534	2.23822	0.634211	5.0715	0.736962	4.74724	0.810192	3.97494			0.587862	4.1661	0.700196	4.21963	0.890061	3.13537
0.431474	1.58033	0.223619	2.23806	0.638933	5.06406	0.741392	4.76333	0.813907	3.99828			0.591729	4.13452	0.704136	4.23865	0.892989	3.15172
0.432942	1.57107	0.225704	2.23791	0.643648	5.05609	0.745837	4.77855	0.817643	4.02178			0.595567	4.10258	0.708094	4.25761	0.895934	3.16799
0.434401	1.56244	0.227789	2.23772	0.648355	5.04756	0.750297	4.79294	0.821401	4.0455			0.599374	4.07028	0.71207	4.27639	0.898893	3.1841
0.435853	1.5544	0.229874	2.23756	0.653053	5.03854	0.754769	4.80654	0.825181	4.06941			0.603151	4.03761	0.716063	4.29497	0.901867	3.20018
0.437298	1.54686	0.231959	2.2374	0.657743	5.02901	0.759253	4.81923	0.828984	4.09349			0.606898	4.00469	0.720073	4.31342	0.904856	3.21617
0.438735	1.53986	0.234043	2.23728	0.662424	5.01897	0.763749	4.83115	0.832809	4.11776			0.610613	3.97145	0.7241	4.33165	0.90786	3.23203
0.440167	1.53337	0.236128	2.23712	0.667096	5.00846	0.768255	4.84227	0.836657	4.14231			0.614298	3.93795	0.728145	4.34959	0.910878	3.2478
0.441593	1.5273	0.238212	2.23696	0.671757	4.99753	0.772772	4.85255	0.840528	4.16711			0.617951	3.90428	0.732205	4.36731	0.913912	3.26353
