Sym0		Asym0		Sym1		Sym2		Sym3		Sym4		Asym1		Asym2		Asym3	
466  Points		496  Points		225  Points		192  Points		179  Points		125  Points		328  Points		204  Points		167  Points	
Freq (MHz)	Vgr (m/ms)	Freq (MHz)	Vgr (m/ms)	Freq (MHz)	Vgr (m/ms)	Freq (MHz)	Vgr (m/ms)	Freq (MHz)	Vgr (m/ms)	Freq (MHz)	Vgr (m/ms)	Freq (MHz)	Vgr (m/ms)	Freq (MHz)	Vgr (m/ms)	Freq (MHz)	Vgr (m/ms)
0.0012683	5.33495	0.00033793	0.39194	0.279509	0.0440507	0.478104	0.0255414	0.559022	0.0443365	0.838536	0.0384711	0.139765	0.175226	0.419265	0.0451685	0.698771	0.0166872
0.00623884	5.33477	0.000703098	0.460909	0.27955	0.0806713	0.478128	0.0363026	0.559063	0.0675141	0.838572	0.0521838	0.139928	0.28078	0.419308	0.0725158	0.698787	0.0325274
0.0112091	5.3343	0.00119678	0.596736	0.279659	0.153839	0.478172	0.0578927	0.559147	0.113756	0.838633	0.0795525	0.140288	0.49073	0.419401	0.127238	0.698832	0.0641543
0.0161787	5.33367	0.00181505	0.727946	0.279837	0.226858	0.478236	0.0795398	0.559275	0.15995	0.83872	0.106897	0.140842	0.697713	0.419545	0.181898	0.698906	0.0957675
0.0211478	5.33277	0.00255323	0.853771	0.280082	0.299655	0.47832	0.101301	0.559445	0.206123	0.838832	0.134267	0.141588	0.900596	0.41974	0.236433	0.69901	0.127427
0.0261158	5.33156	0.00340596	0.973585	0.280395	0.372152	0.478424	0.123216	0.559659	0.25218	0.83897	0.161615	0.142521	1.09835	0.419985	0.290936	0.699144	0.159031
0.0310825	5.33016	0.0043674	1.08694	0.280775	0.444271	0.478549	0.145294	0.559915	0.298078	0.839133	0.188917	0.143635	1.29011	0.420282	0.345305	0.699307	0.190598
0.0360479	5.32853	0.00543136	1.19354	0.281223	0.515925	0.478695	0.167551	0.560214	0.343878	0.839322	0.216202	0.144925	1.47521	0.420629	0.399476	0.699499	0.222167
0.0410117	5.3266	0.00659143	1.29314	0.281737	0.587091	0.478862	0.190019	0.560556	0.389555	0.839536	0.243527	0.146384	1.65308	0.421026	0.453547	0.699721	0.253662
0.0459735	5.32441	0.00784098	1.38577	0.282317	0.657718	0.479049	0.212761	0.56094	0.434986	0.839776	0.270783	0.148005	1.82337	0.421474	0.507416	0.699972	0.285159
0.0509331	5.32194	0.00917365	1.47156	0.282962	0.727707	0.479258	0.235761	0.561367	0.480292	0.840041	0.297976	0.149781	1.98582	0.421972	0.561028	0.700252	0.316586
0.0558903	5.3192	0.0105831	1.55056	0.283673	0.797007	0.479488	0.259056	0.561835	0.525421	0.840331	0.32519	0.151705	2.14029	0.422519	0.61442	0.700562	0.347945
0.0608449	5.31622	0.012063	1.6231	0.284447	0.865515	0.479741	0.282647	0.562346	0.570267	0.840647	0.352372	0.153769	2.28692	0.423116	0.667589	0.7009	0.379315
0.0657965	5.31295	0.0136075	1.68952	0.285286	0.933242	0.480015	0.306613	0.562898	0.614843	0.840988	0.37949	0.155967	2.42578	0.423763	0.720461	0.701268	0.410562
0.070745	5.30934	0.0152112	1.75006	0.286186	1.00014	0.480312	0.330959	0.563491	0.659244	0.841354	0.406552	0.15829	2.55703	0.424459	0.773031	0.701665	0.441781
0.0756899	5.30543	0.0168686	1.80508	0.287149	1.06605	0.480632	0.355702	0.564126	0.703368	0.841745	0.433578	0.160731	2.68109	0.425204	0.825364	0.702092	0.472945
0.0806311	5.30126	0.0185748	1.85499	0.288173	1.13106	0.480975	0.380871	0.564802	0.747159	0.842162	0.460602	0.162951	2.78354	0.425997	0.877295	0.702547	0.503998
0.0855682	5.29673	0.0203252	1.90018	0.289257	1.19509	0.481342	0.406453	0.565519	0.790721	0.842604	0.487551	0.164907	2.86684	0.426838	0.928863	0.703031	0.534977
0.0905009	5.29185	0.0221155	1.94095	0.2904	1.25805	0.481732	0.432496	0.566275	0.833973	0.84307	0.514422	0.166567	2.93297	0.427728	0.980142	0.703544	0.56588
0.095429	5.28663	0.0239419	1.97769	0.291601	1.31995	0.482147	0.459019	0.567073	0.876899	0.843562	0.541284	0.167906	2.98346	0.428665	1.03099	0.704085	0.596704
0.100352	5.28102	0.0258007	2.01072	0.292859	1.38075	0.482588	0.486065	0.567909	0.919464	0.844079	0.568055	0.168905	3.01974	0.429649	1.08142	0.704655	0.627444
0.10527	5.27508	0.0276887	2.04039	0.294174	1.44041	0.483053	0.513644	0.568786	0.961747	0.844621	0.594791	0.16955	3.04254	0.43068	1.13145	0.705254	0.658089
0.110182	5.26876	0.0296028	2.067	0.295543	1.49892	0.483545	0.541702	0.569702	1.00369	0.845187	0.621456	0.170487	3.07461	0.431757	1.18105	0.705882	0.688618
0.115087	5.26198	0.0315403	2.09076	0.296967	1.55625	0.484063	0.570351	0.570656	1.04523	0.845779	0.648054	0.171515	3.10877	0.432881	1.23022	0.706537	0.719061
0.119987	5.25479	0.0334987	2.11199	0.298443	1.61239	0.484608	0.599599	0.571649	1.0865	0.846395	0.674588	0.172933	3.15406	0.43405	1.27898	0.707222	0.749404
0.124879	5.24714	0.0354758	2.13095	0.299971	1.66733	0.48518	0.629382	0.572681	1.12736	0.847036	0.70107	0.174754	3.20943	0.435264	1.32721	0.707934	0.779621
0.129764	5.23904	0.0374695	2.14783	0.30155	1.72103	0.48578	0.659799	0.57375	1.16784	0.847701	0.727448	0.176998	3.27372	0.436523	1.37496	0.708674	0.809733
0.134641	5.23044	0.039478	2.16285	0.303178	1.77356	0.486409	0.690823	0.574857	1.20801	0.848391	0.753762	0.179686	3.34558	0.437826	1.42226	0.709443	0.839709
0.13951	5.2213	0.0414997	2.17619	0.304855	1.82487	0.487068	0.722476	0.576001	1.24777	0.849106	0.780024	0.18284	3.42366	0.439173	1.46903	0.710239	0.869557
0.144371	5.21159	0.0435331	2.18801	0.306579	1.87498	0.487756	0.7548	0.577182	1.28716	0.849845	0.806179	0.186065	3.49735	0.440563	1.51526	0.711063	0.899297
0.149222	5.20134	0.0453135	2.19716	0.308349	1.92392	0.488474	0.787734	0.578399	1.32617	0.850608	0.83227	0.189357	3.56675	0.441996	1.561	0.711915	0.928894
0.154063	5.19049	0.0468367	2.20428	0.309928	1.96559	0.489223	0.821375	0.579653	1.36478	0.851396	0.85823	0.192712	3.63217	0.443472	1.60626	0.712794	0.958353
0.158894	5.17898	0.0480999	2.20975	0.311301	2.00038	0.490005	0.855699	0.580943	1.40305	0.852207	0.88415	0.196125	3.69389	0.44499	1.65092	0.713701	0.987681
0.163713	5.1668	0.0491009	2.21369	0.312454	2.02877	0.490818	0.890655	0.582267	1.4409	0.853043	0.90999	0.199595	3.75206	0.446548	1.69506	0.714634	1.01689
0.168521	5.15393	0.0498379	2.21638	0.313377	2.05083	0.491664	0.926364	0.583627	1.47837	0.853903	0.93574	0.203117	3.80701	0.448148	1.73866	0.715595	1.04595
0.173317	5.14028	0.0503101	2.21802	0.314062	2.06704	0.492544	0.962771	0.585022	1.51552	0.854787	0.961387	0.206689	3.8589	0.449788	1.78169	0.716583	1.07483
0.1781	5.12579	0.0509894	2.22041	0.314503	2.07729	0.493458	0.999842	0.586451	1.55225	0.855694	0.986899	0.210308	3.90789	0.451468	1.82418	0.717598	1.10359
0.182868	5.11045	0.0517287	2.22291	0.315141	2.09164	0.494407	1.03766	0.587915	1.58857	0.856626	1.01236	0.213971	3.95417	0.453187	1.86609	0.71864	1.13219
0.187622	5.09426	0.0527354	2.22598	0.31584	2.10734	0.495392	1.07623	0.589412	1.62452	0.857581	1.03772	0.217676	3.99793	0.454945	1.90743	0.719708	1.1606
0.192361	5.07711	0.0540105	2.22966	0.316798	2.12852	0.496413	1.11543	0.590942	1.66008	0.858559	1.06296	0.22142	4.03933	0.456742	1.94821	0.720802	1.18886
0.197083	5.05894	0.0555551	2.23371	0.318024	2.15486	0.49747	1.15538	0.592505	1.69533	0.859562	1.0881	0.225203	4.07845	0.458576	1.98846	0.721923	1.21695
0.201788	5.03972	0.0573705	2.23793	0.319527	2.18627	0.498566	1.1961	0.594101	1.73015	0.860587	1.11317	0.22902	4.11544	0.460447	2.0281	0.72307	1.24494
0.206474	5.01931	0.0594577	2.24221	0.321316	2.2223	0.499699	1.23747	0.595729	1.76456	0.861636	1.13812	0.232871	4.15045	0.462355	2.06716	0.724243	1.27271
0.211141	4.99775	0.0615486	2.24593	0.323406	2.26281	0.500871	1.27956	0.597389	1.79867	0.862708	1.1629	0.236754	4.18355	0.464299	2.10566	0.725442	1.30029
0.215787	4.97492	0.0636427	2.24914	0.325533	2.30247	0.502083	1.32236	0.599081	1.83239	0.863803	1.18764	0.240667	4.2149	0.466278	2.14355	0.726666	1.32775
0.220411	4.95071	0.0657397	2.25188	0.327696	2.34135	0.503336	1.36586	0.600803	1.86571	0.864921	1.21227	0.244608	4.24457	0.468293	2.18096	0.727916	1.35499
0.225012	4.92508	0.0678389	2.25417	0.329896	2.37939	0.504629	1.41	0.602557	1.89872	0.866062	1.23679	0.248576	4.27265	0.470077	2.21305	0.729191	1.38207
0.229588	4.89791	0.0699401	2.25608	0.33213	2.41676	0.505963	1.45484	0.604341	1.93135	0.867225	1.26115	0.25257	4.29922	0.471618	2.24007	0.730491	1.40899
0.234139	4.86922	0.0720429	2.25773	0.334399	2.4535	0.507339	1.50036	0.606156	1.96356	0.868412	1.28539	0.256587	4.3243	0.472906	2.26226	0.731816	1.43566
0.238662	4.83885	0.0741471	2.25907	0.336702	2.4897	0.508574	1.54045	0.608	1.99548	0.869621	1.30957	0.260627	4.34804	0.473934	2.2795	0.733166	1.46218
0.243155	4.80667	0.0762524	2.26015	0.339038	2.52549	0.509652	1.57507	0.609874	2.02708	0.870852	1.3336	0.264689	4.3705	0.474695	2.29215	0.734541	1.48858
0.247618	4.77264	0.0783586	2.26101	0.341408	2.56089	0.510562	1.60393	0.611778	2.05827	0.872106	1.3575	0.268771	4.39169	0.475184	2.30025	0.73594	1.51471
0.252049	4.73667	0.0804655	2.26166	0.34381	2.59609	0.511293	1.62687	0.61371	2.08909	0.873382	1.38128	0.272873	4.41173	0.47589	2.31178	0.737363	1.54067
0.256444	4.6987	0.082573	2.26214	0.346245	2.63116	0.511837	1.64376	0.61567	2.1196	0.87468	1.40495	0.276992	4.43065	0.476661	2.3243	0.738811	1.56645
0.260804	4.65858	0.0846808	2.26245	0.348713	2.66617	0.512188	1.65466	0.617659	2.14979	0.875999	1.42849	0.281129	4.44846	0.477717	2.34113	0.740282	1.59201
0.265125	4.61628	0.0867888	2.26267	0.351214	2.70128	0.512697	1.67055	0.619676	2.17963	0.877341	1.45191	0.285281	4.46524	0.479063	2.36216	0.741778	1.61742
0.269406	4.57174	0.088897	2.26275	0.353747	2.73668	0.513256	1.68773	0.621721	2.20912	0.878705	1.47518	0.289449	4.48103	0.480706	2.38743	0.743296	1.64261
0.273644	4.52485	0.0910052	2.26268	0.356313	2.77235	0.514025	1.71109	0.623793	2.2383	0.88009	1.49835	0.293631	4.49588	0.482657	2.41665	0.744838	1.66757
0.277838	4.47559	0.0931133	2.26257	0.358913	2.80854	0.515013	1.74097	0.625892	2.26715	0.881497	1.52139	0.297827	4.50986	0.484924	2.44968	0.746404	1.69237
0.281984	4.42389	0.0952213	2.26237	0.361546	2.84535	0.51623	1.77737	0.628017	2.29569	0.882925	1.54427	0.302035	4.52293	0.487221	2.4822	0.747992	1.71699
0.286081	4.36978	0.097329	2.26209	0.364215	2.88283	0.51769	1.82033	0.629891	2.32032	0.884375	1.56702	0.306255	4.5351	0.489549	2.51413	0.749603	1.7414
0.290127	4.31319	0.0994364	2.26176	0.366918	2.9212	0.51941	1.87005	0.631504	2.34115	0.885845	1.58966	0.310486	4.5465	0.491906	2.54555	0.751237	1.76561
0.294118	4.25422	0.101543	2.26138	0.369658	2.96053	0.521175	1.92018	0.632849	2.35815	0.887337	1.61218	0.314727	4.55714	0.494292	2.57646	0.752893	1.78956
0.298054	4.19288	0.10365	2.26101	0.372435	3.00092	0.522988	1.9707	0.633919	2.37159	0.888849	1.63457	0.318977	4.567	0.496707	2.60682	0.754571	1.81338
0.301931	4.12924	0.105757	2.26056	0.37525	3.0425	0.524847	2.02156	0.63471	2.38132	0.890383	1.6568	0.323237	4.57611	0.49915	2.63669	0.756272	1.837
0.305748	4.06342	0.107863	2.26005	0.378104	3.08534	0.526754	2.07266	0.635218	2.38761	0.891936	1.67885	0.327504	4.58455	0.50162	2.66608	0.757995	1.86036
0.309503	3.99548	0.109968	2.25953	0.380999	3.12953	0.528709	2.12402	0.63595	2.39662	0.893511	1.70082	0.33178	4.59224	0.504118	2.69496	0.759739	1.88356
0.313193	3.92568	0.112073	2.25902	0.383936	3.17507	0.530712	2.1756	0.636749	2.4063	0.895106	1.72265	0.336062	4.59924	0.506642	2.72327	0.761504	1.90652
0.316818	3.85419	0.114177	2.25851	0.386915	3.22201	0.532763	2.22735	0.637841	2.41953	0.896721	1.74434	0.34035	4.60567	0.509192	2.75116	0.763291	1.9293
0.320375	3.78123	0.116281	2.25796	0.38994	3.27038	0.534863	2.27915	0.639231	2.43594	0.898356	1.76589	0.344644	4.61141	0.511769	2.77862	0.765099	1.95194
0.323864	3.70701	0.118385	2.25735	0.393009	3.32005	0.53701	2.33102	0.640924	2.45577	0.900011	1.78732	0.348943	4.61648	0.51437	2.80557	0.766928	1.9743
0.327283	3.63182	0.120488	2.25683	0.396126	3.37107	0.539206	2.38295	0.642927	2.47884	0.901687	1.80856	0.353246	4.62099	0.516996	2.83204	0.768778	1.99645
0.330205	3.56575	0.12259	2.25628	0.399291	3.42335	0.541451	2.43478	0.645249	2.50501	0.903381	1.82966	0.357553	4.62489	0.519647	2.8581	0.770407	2.01567
0.332653	3.50917	0.124692	2.25567	0.402505	3.47674	0.543743	2.48647	0.647595	2.53092	0.905096	1.85069	0.361864	4.6282	0.522322	2.88369	0.771808	2.0319
0.334648	3.46218	0.126793	2.25515	0.40577	3.53108	0.546084	2.53806	0.649965	2.5565	0.90683	1.87152	0.366177	4.63091	0.525021	2.90886	0.772974	2.04521
0.336206	3.42513	0.128894	2.25459	0.409085	3.5862	0.548473	2.58945	0.652358	2.58182	0.908583	1.89222	0.370493	4.63308	0.527743	2.9336	0.773902	2.05569
0.337342	3.39779	0.130995	2.25402	0.412452	3.64191	0.550909	2.6406	0.654776	2.6069	0.910356	1.91281	0.374811	4.63471	0.530487	2.95795	0.774588	2.06341
0.338063	3.38027	0.133094	2.25348	0.415871	3.69801	0.553393	2.69144	0.657216	2.63166	0.912148	1.93321	0.379129	4.63574	0.533254	2.98192	0.775028	2.0683
0.339094	3.35531	0.135194	2.25292	0.419343	3.75429	0.555924	2.74195	0.659679	2.65617	0.913958	1.95349	0.383449	4.63626	0.536044	3.00547	0.775662	2.07525
0.340206	3.32821	0.137293	2.25238	0.422867	3.81045	0.558503	2.79207	0.662166	2.68043	0.915788	1.97363	0.387769	4.63623	0.538855	3.02868	0.776354	2.08287
0.341704	3.29136	0.139391	2.25189	0.426443	3.86625	0.561127	2.84174	0.664674	2.70443	0.917636	1.9936	0.392088	4.63562	0.541687	3.05145	0.777299	2.09323
0.343575	3.24494	0.141489	2.25135	0.430071	3.92154	0.563798	2.89096	0.667205	2.72815	0.919503	2.01349	0.396407	4.63452	0.544541	3.07389	0.7785	2.10619
0.345801	3.18928	0.143586	2.25083	0.433751	3.97595	0.566514	2.93967	0.669758	2.75162	0.921388	2.0332	0.400724	4.6329	0.547415	3.09603	0.779963	2.12177
0.348364	3.12469	0.145683	2.25035	0.43748	4.02935	0.569276	2.98783	0.672332	2.77489	0.923046	2.05021	0.405039	4.63077	0.55031	3.11782	0.781694	2.13992
0.351241	3.05172	0.147779	2.24985	0.441259	4.08153	0.572082	3.03542	0.674928	2.79787	0.92447	2.06469	0.409353	4.62806	0.553225	3.13927	0.783697	2.16055
0.354051	2.98014	0.149875	2.24934	0.445086	4.13223	0.574932	3.0824	0.677546	2.82061	0.925655	2.07661	0.413663	4.62484	0.55616	3.16039	0.785719	2.18101
0.356794	2.91019	0.151971	2.24887	0.448959	4.18139	0.577825	3.1287	0.680184	2.84315	0.926597	2.08604	0.417971	4.62114	0.559114	3.18128	0.787761	2.20124
0.359473	2.84204	0.154066	2.24845	0.452877	4.22885	0.580762	3.17437	0.682844	2.86548	0.927292	2.09292	0.422274	4.61691	0.562087	3.20183	0.789821	2.22131
0.36209	2.77577	0.15616	2.24799	0.456839	4.27445	0.58374	3.21933	0.685524	2.88752	0.927738	2.09724	0.426574	4.61216	0.56508	3.22211	0.7919	2.24124
0.364646	2.71158	0.158255	2.24753	0.460842	4.31812	0.586761	3.26356	0.688224	2.90934	0.928381	2.10352	0.430869	4.60685	0.568092	3.24213	0.793998	2.26091
0.367143	2.64957	0.160348	2.24713	0.464885	4.35977	0.589822	3.3071	0.690945	2.93102	0.929082	2.11031	0.435158	4.60105	0.571121	3.26189	0.796113	2.28037
0.369583	2.58974	0.162442	2.2467	0.468966	4.39942	0.592923	3.34989	0.693686	2.95244	0.930039	2.11953	0.439442	4.59475	0.57417	3.28147	0.798247	2.2997
0.371968	2.5321	0.164535	2.24627	0.473083	4.43707	0.596064	3.3919	0.696447	2.97366	0.931256	2.13123	0.44372	4.58789	0.577236	3.30078	0.800398	2.31885
0.374301	2.47673	0.166628	2.24587	0.477234	4.4726	0.599243	3.43308	0.699227	2.99471	0.932735	2.14523	0.447991	4.58051	0.58032	3.31985	0.802568	2.33776
0.376584	2.42367	0.16872	2.24549	0.481417	4.50608	0.602461	3.47353	0.702027	3.01552	0.934484	2.16156	0.452255	4.57261	0.583422	3.33876	0.804755	2.35652
0.378817	2.37286	0.170812	2.24511	0.485631	4.53757	0.605716	3.51319	0.704846	3.03615	0.936506	2.18012	0.456512	4.56419	0.586542	3.35751	0.806959	2.37512
0.381005	2.32424	0.172903	2.24474	0.489872	4.56709	0.609007	3.55207	0.707684	3.0566	0.938546	2.19863	0.46076	4.55522	0.589679	3.37605	0.80918	2.39355
0.383148	2.27777	0.174995	2.24437	0.494141	4.59467	0.612335	3.59011	0.710542	3.0769	0.940603	2.21696	0.465	4.54572	0.592833	3.39439	0.811419	2.4118
0.385249	2.23348	0.177085	2.24404	0.498434	4.62039	0.615697	3.62737	0.713418	3.09701	0.942677	2.23511	0.469231	4.53569	0.596004	3.41261	0.813674	2.42987
0.38731	2.19123	0.179176	2.2437	0.502751	4.64428	0.619094	3.66383	0.716313	3.11692	0.944768	2.25315	0.473452	4.52512	0.599192	3.4307	0.815947	2.44776
0.389333	2.15102	0.181266	2.24337	0.507088	4.66637	0.622524	3.69946	0.719226	3.13669	0.946876	2.27107	0.477663	4.51397	0.602396	3.44871	0.818236	2.4655
0.391318	2.11276	0.183356	2.24303	0.511446	4.68686	0.625988	3.7343	0.722158	3.15635	0.949	2.28885	0.481863	4.50228	0.605618	3.46654	0.820541	2.48305
0.393269	2.07638	0.185446	2.24271	0.515822	4.70571	0.629483	3.76835	0.725108	3.17581	0.951141	2.30646	0.486052	4.49006	0.608856	3.48425	0.822862	2.50046
0.395188	2.04181	0.187535	2.24241	0.520214	4.72293	0.633009	3.80163	0.728075	3.19506	0.953298	2.32391	0.49023	4.47729	0.61211	3.50192	0.8252	2.51774
0.397074	2.00897	0.189624	2.24207	0.524622	4.73873	0.636567	3.83413	0.731061	3.21425	0.955471	2.34124	0.494395	4.46398	0.615381	3.51948	0.827554	2.53484
0.398931	1.97783	0.191713	2.24183	0.529044	4.75314	0.640154	3.86587	0.734065	3.23333	0.957661	2.35847	0.498548	4.45007	0.618669	3.53697	0.829924	2.55177
0.40076	1.94827	0.193802	2.24153	0.533479	4.76617	0.64377	3.89683	0.737086	3.25224	0.959866	2.37555	0.502687	4.43558	0.621972	3.55444	0.832309	2.56855
0.402561	1.92023	0.19589	2.24123	0.537926	4.77788	0.647415	3.92703	0.740125	3.271	0.962087	2.39244	0.506813	4.42056	0.625292	3.57185	0.83471	2.58518
0.404338	1.89369	0.197978	2.24101	0.542382	4.78839	0.651088	3.95645	0.743181	3.28968	0.964324	2.40919	0.510925	4.40497	0.628628	3.58916	0.837126	2.6017
0.40609	1.86855	0.200066	2.24071	0.546848	4.79775	0.654788	3.98518	0.746255	3.30825	0.966576	2.42589	0.515021	4.38882	0.63198	3.60646	0.839558	2.61809
0.40782	1.8447	0.202153	2.24045	0.551322	4.80598	0.658514	4.01317	0.749346	3.32669	0.968844	2.4424	0.519103	4.37214	0.635348	3.62378	0.842005	2.6343
0.409527	1.82216	0.204241	2.24022	0.555804	4.81313	0.662266	4.04042	0.752454	3.34506	0.971128	2.45875	0.523168	4.35486	0.638732	3.64102	0.844467	2.65043
0.411215	1.80081	0.206328	2.23995	0.560291	4.81927	0.666043	4.06701	0.755579	3.3633	0.973426	2.47501	0.527217	4.33699	0.642133	3.65828	0.846943	2.66641
0.412883	1.78066	0.208415	2.23974	0.564784	4.82447	0.669844	4.09291	0.758721	3.38149	0.975739	2.49113	0.53125	4.31858	0.645549	3.67551	0.849435	2.68219
0.414533	1.76161	0.210501	2.23949	0.569281	4.82875	0.673669	4.11809	0.76188	3.3996	0.978068	2.5071	0.535265	4.29963	0.648982	3.69274	0.851941	2.69792
0.416166	1.74359	0.212588	2.23926	0.573782	4.83214	0.677518	4.14258	0.765056	3.41763	0.980411	2.52292	0.539262	4.28012	0.65243	3.70999	0.854462	2.71352
0.417782	1.72659	0.214674	2.23907	0.578285	4.83467	0.681389	4.16647	0.768248	3.43561	0.982769	2.53863	0.54324	4.26007	0.655895	3.72722	0.856998	2.72897
0.419383	1.71051	0.21676	2.23883	0.582791	4.83638	0.685282	4.18965	0.771458	3.45347	0.985142	2.55418	0.5472	4.23946	0.659376	3.74448	0.859547	2.74434
0.420969	1.69537	0.218846	2.2386	0.587297	4.83738	0.689196	4.21224	0.774684	3.47133	0.987529	2.56964	0.55114	4.21832	0.662872	3.76175	0.862112	2.75961
0.422542	1.6811	0.220931	2.23841	0.591805	4.83766	0.693131	4.23418	0.777926	3.48916	0.98993	2.58499	0.55506	4.19665	0.666385	3.779	0.86469	2.77476
0.424102	1.66763	0.223017	2.23824	0.596312	4.83718	0.697086	4.25545	0.781185	3.50694	0.992345	2.60014	0.55896	4.17447	0.669914	3.79622	0.867282	2.7898
0.42565	1.65496	0.225102	2.23805	0.600818	4.83606	0.70106	4.27615	0.784461	3.52469	0.994775	2.61518	0.562839	4.1518	0.673459	3.81352	0.869888	2.80472
0.427186	1.64306	0.227187	2.23784	0.605323	4.83425	0.705054	4.29628	0.787753	3.54239	0.997218	2.63014	0.566696	4.12857	0.67702	3.83077	0.872508	2.81954
0.428711	1.63183	0.229272	2.23766	0.609826	4.83185	0.709066	4.31575	0.791062	3.56007	0.999676	2.64494	0.570532	4.10487	0.680597	3.848	0.875142	2.83431
0.430226	1.62131	0.231357	2.23747	0.614327	4.82889	0.713096	4.33468	0.794387	3.57777	1.00215	2.65229	0.574345	4.08075	0.68419	3.86526	0.87779	2.84894
0.431732	1.61144	0.233441	2.23729	0.618824	4.82528	0.717143	4.35305	0.797729	3.59548			0.578136	4.05616	0.6878	3.88246	0.880451	2.86351
0.433229	1.60214	0.235526	2.23713	0.623318	4.82117	0.721207	4.3708	0.801087	3.61316			0.581904	4.03109	0.691425	3.89963	0.883126	2.87801
0.434718	1.59347	0.23761	2.23698	0.627808	4.81652	0.725287	4.38799	0.804461	3.6309			0.585647	4.00559	0.695066	3.91678	0.885814	2.8924
