Sym0		Asym0		Sym1		Sym2		Sym3		Asym1		Asym2	
393  Points		401  Points		245  Points		205  Points		156  Points		315  Points		214  Points	
Freq (MHz)	Vgr (m/ms)	Freq (MHz)	Vgr (m/ms)	Freq (MHz)	Vgr (m/ms)	Freq (MHz)	Vgr (m/ms)	Freq (MHz)	Vgr (m/ms)	Freq (MHz)	Vgr (m/ms)	Freq (MHz)	Vgr (m/ms)
0.0041476	5.49131	0.00042077	0.428864	0.408248	-0.0112635	0.488347	0.0456174	0.816501	0.0260187	0.20417	0.204078	0.612373	0.0163724
0.00863483	5.49109	0.000771217	0.492264	0.408239	-0.0184408	0.488384	0.0844556	0.816522	0.0366381	0.204337	0.278302	0.612386	0.0278466
0.0131217	5.49058	0.00122528	0.618162	0.408218	-0.0326239	0.488485	0.162055	0.816561	0.057807	0.204625	0.426152	0.612418	0.0508283
0.0176081	5.48989	0.00178148	0.741938	0.408185	-0.0464596	0.488649	0.23934	0.816617	0.079017	0.205033	0.572705	0.612469	0.0738267
0.0220938	5.48901	0.00243783	0.863226	0.408142	-0.0598508	0.488876	0.316164	0.81669	0.100226	0.205561	0.717498	0.612539	0.0968586
0.0265788	5.48793	0.00319225	0.981706	0.408087	-0.0725203	0.489165	0.392398	0.816781	0.121349	0.206206	0.860109	0.612628	0.119874
0.0310628	5.4866	0.00404223	1.09708	0.408023	-0.0844144	0.489517	0.467871	0.816888	0.14255	0.206967	1.00019	0.612735	0.142856
0.0355455	5.48512	0.0049852	1.20915	0.40795	-0.0954257	0.48993	0.542406	0.817014	0.163742	0.207841	1.13739	0.612861	0.165856
0.0400271	5.4834	0.00601835	1.31765	0.407867	-0.105423	0.490404	0.615984	0.817156	0.184913	0.208825	1.27141	0.613006	0.188806
0.0445071	5.48147	0.00713864	1.4224	0.407777	-0.114311	0.490937	0.688484	0.817316	0.206045	0.209918	1.402	0.61317	0.211742
0.0489855	5.47935	0.00834299	1.52335	0.40768	-0.121899	0.491529	0.759744	0.817493	0.227182	0.211117	1.52896	0.613352	0.23465
0.053462	5.47697	0.00962825	1.62035	0.407578	-0.128306	0.492178	0.82978	0.817687	0.248328	0.212417	1.65213	0.613553	0.257583
0.0579365	5.47436	0.0109911	1.71338	0.407471	-0.133353	0.492885	0.898451	0.817899	0.269407	0.213817	1.77136	0.613773	0.280484
0.0624087	5.47157	0.0124284	1.80242	0.40736	-0.136934	0.493647	0.96573	0.818127	0.290523	0.215312	1.88655	0.614011	0.303322
0.0668787	5.4685	0.0139368	1.88747	0.407247	-0.139087	0.494463	1.03164	0.818373	0.311625	0.2169	1.99769	0.614269	0.3262
0.0713459	5.46519	0.0155131	1.96863	0.407133	-0.1398	0.495333	1.09607	0.818637	0.332703	0.218577	2.10472	0.614545	0.34899
0.0758104	5.46166	0.0171542	2.04586	0.407018	-0.139056	0.496254	1.15897	0.818917	0.353731	0.22034	2.20764	0.614839	0.371773
0.0802719	5.45786	0.0188567	2.11931	0.406905	-0.136732	0.497227	1.22045	0.819215	0.374743	0.222185	2.30651	0.615152	0.394541
0.0847302	5.45377	0.0206178	2.18905	0.406795	-0.132921	0.498249	1.28046	0.81953	0.395805	0.224109	2.40135	0.615484	0.417279
0.089185	5.44942	0.0224343	2.25513	0.406688	-0.127635	0.49932	1.33892	0.819862	0.416801	0.226109	2.49225	0.615834	0.439957
0.0936362	5.44483	0.0243033	2.31781	0.406586	-0.120822	0.500437	1.39597	0.820211	0.43775	0.228182	2.57935	0.616203	0.462598
0.0980835	5.4399	0.0262223	2.37711	0.406491	-0.112541	0.501601	1.45154	0.820577	0.458687	0.230325	2.6627	0.61659	0.48525
0.102527	5.43472	0.0281882	2.43316	0.406403	-0.102826	0.502809	1.50571	0.82096	0.4796	0.232534	2.74237	0.616996	0.507839
0.106965	5.4292	0.0301988	2.48613	0.406323	-0.0916642	0.504062	1.55852	0.821361	0.500548	0.234807	2.81854	0.61742	0.530387
0.1114	5.42334	0.0322513	2.53612	0.406253	-0.0791105	0.505357	1.60995	0.821778	0.521401	0.23714	2.89139	0.617863	0.55285
0.115829	5.41721	0.0343435	2.58332	0.406193	-0.0651933	0.506693	1.66002	0.822213	0.542229	0.239532	2.96091	0.618324	0.575314
0.120253	5.41071	0.0364732	2.62779	0.406146	-0.0498853	0.50807	1.70881	0.822665	0.563092	0.241979	3.02739	0.618803	0.597777
0.124672	5.40381	0.0386381	2.66971	0.406112	-0.0332152	0.509486	1.75637	0.823133	0.583856	0.244155	3.08291	0.619301	0.620156
0.129084	5.39652	0.0408363	2.70921	0.406092	-0.0153241	0.51094	1.80271	0.823619	0.604592	0.246041	3.12849	0.619816	0.642451
0.133491	5.38888	0.0430658	2.74637	0.406087	0.00383986	0.512432	1.84789	0.824121	0.625353	0.247621	3.16496	0.620351	0.664742
0.137891	5.38085	0.0453248	2.78137	0.406098	0.0242968	0.51396	1.89189	0.824641	0.646081	0.248882	3.19313	0.620903	0.687029
0.142285	5.37241	0.0476114	2.81428	0.406127	0.04592	0.515524	1.93479	0.825177	0.666744	0.249817	3.21357	0.621473	0.709222
0.146672	5.36345	0.0499241	2.84528	0.406173	0.0687068	0.517122	1.97668	0.825731	0.68736	0.250419	3.22632	0.622062	0.731311
0.151051	5.35406	0.0522614	2.87437	0.406239	0.0927352	0.518754	2.01754	0.826301	0.707964	0.251287	3.24433	0.622669	0.753444
0.155422	5.34421	0.0546217	2.90173	0.406325	0.11791	0.520419	2.05741	0.826888	0.728546	0.252237	3.26368	0.623293	0.775494
0.159785	5.33378	0.0570037	2.92749	0.406432	0.144127	0.522117	2.09632	0.827491	0.749082	0.253538	3.28954	0.623936	0.797466
0.164139	5.32285	0.0594061	2.95161	0.40656	0.171507	0.523845	2.1343	0.828112	0.769613	0.255197	3.32146	0.624597	0.819447
0.167926	5.31291	0.0618276	2.9743	0.406712	0.200045	0.525605	2.17142	0.828749	0.790047	0.257225	3.35874	0.625275	0.841363
0.171148	5.30409	0.064267	2.99562	0.406887	0.229646	0.527394	2.20768	0.829403	0.810455	0.259632	3.40092	0.625972	0.863231
0.173809	5.2965	0.0667233	3.01564	0.407087	0.260289	0.529213	2.24312	0.830074	0.830896	0.26243	3.44731	0.626686	0.885004
0.17591	5.29042	0.0691955	3.03439	0.407313	0.292014	0.53106	2.27776	0.830761	0.851235	0.265266	3.49163	0.627418	0.906754
0.177453	5.28582	0.0716824	3.052	0.407564	0.324898	0.532935	2.31162	0.831465	0.871535	0.268136	3.53396	0.628168	0.928459
0.17844	5.28282	0.0741834	3.06852	0.407844	0.358849	0.534838	2.34478	0.832185	0.891844	0.271041	3.57442	0.628935	0.950072
0.179858	5.27842	0.0766973	3.08402	0.408151	0.393849	0.536767	2.37727	0.832922	0.912085	0.273978	3.61306	0.629721	0.971671
0.181397	5.27351	0.0792236	3.09857	0.408487	0.429945	0.538723	2.40901	0.833676	0.932274	0.276946	3.64992	0.630523	0.993239
0.183489	5.26678	0.0817613	3.11215	0.408805	0.462237	0.540704	2.4401	0.834446	0.952443	0.279943	3.68513	0.631344	1.01475
0.186131	5.25801	0.0843098	3.12493	0.409094	0.490538	0.542711	2.47055	0.835232	0.972572	0.282969	3.71881	0.632182	1.03622
0.189319	5.24709	0.0868684	3.13689	0.409346	0.51438	0.544742	2.50038	0.836035	0.992621	0.286021	3.75102	0.633037	1.05761
0.193051	5.23373	0.0894364	3.14804	0.409554	0.533505	0.546797	2.52963	0.836855	1.01268	0.289099	3.78174	0.63391	1.07894
0.197321	5.21762	0.0920132	3.15854	0.409712	0.54784	0.548876	2.55832	0.83769	1.03266	0.292201	3.81109	0.634801	1.10023
0.201578	5.20071	0.0945984	3.16837	0.409815	0.556993	0.550978	2.5864	0.838542	1.05259	0.295327	3.83916	0.635708	1.1215
0.205821	5.18299	0.0971913	3.1775	0.409966	0.570282	0.553103	2.61392	0.839411	1.07258	0.298476	3.86598	0.636633	1.14274
0.210049	5.16431	0.0997914	3.18607	0.410135	0.585033	0.55525	2.64097	0.840295	1.09242	0.301646	3.89162	0.637576	1.16394
0.214261	5.14466	0.102063	3.19305	0.410371	0.605259	0.557419	2.66751	0.841196	1.11223	0.304836	3.91609	0.638536	1.18504
0.218457	5.12402	0.104003	3.19872	0.410681	0.631192	0.55961	2.69354	0.842113	1.13206	0.308046	3.93947	0.639513	1.20612
0.222635	5.10235	0.10561	3.20324	0.411074	0.663207	0.561821	2.71905	0.843046	1.15177	0.311274	3.96181	0.640507	1.22722
0.226795	5.07952	0.106882	3.20667	0.41156	0.701678	0.564054	2.74409	0.843995	1.17147	0.31452	3.98313	0.641518	1.24822
0.230937	5.0555	0.107818	3.20908	0.412151	0.746988	0.566306	2.76871	0.844961	1.19117	0.317784	4.00347	0.642547	1.26917
0.235058	5.03026	0.108417	3.21059	0.412781	0.793569	0.568578	2.79289	0.845942	1.21076	0.321063	4.02291	0.643593	1.29012
0.239158	5.00377	0.10928	3.21276	0.413448	0.841536	0.57087	2.81661	0.846939	1.23034	0.324358	4.04145	0.644655	1.31104
0.243235	4.97591	0.110218	3.21495	0.414156	0.890907	0.573182	2.83993	0.847953	1.24986	0.327668	4.0591	0.645735	1.33193
0.24729	4.94658	0.111494	3.21787	0.414904	0.94173	0.575512	2.86284	0.848982	1.26936	0.330992	4.07595	0.646832	1.35275
0.25132	4.91579	0.11311	3.22159	0.415695	0.994073	0.57786	2.88536	0.850027	1.28882	0.33433	4.09193	0.647946	1.3736
0.255324	4.88349	0.115067	3.2258	0.416529	1.04789	0.579922	2.90462	0.851088	1.3082	0.33768	4.10719	0.649077	1.39441
0.259301	4.84955	0.117366	3.23045	0.417408	1.10335	0.58169	2.92086	0.852165	1.32759	0.341042	4.1217	0.650225	1.41516
0.263249	4.81392	0.120008	3.23542	0.418332	1.16048	0.58316	2.93418	0.853258	1.34691	0.344416	4.13548	0.65139	1.43595
0.267168	4.77656	0.122654	3.23998	0.419304	1.21932	0.584326	2.94445	0.854367	1.36618	0.347801	4.14854	0.652572	1.45674
0.271056	4.73746	0.125303	3.24432	0.420325	1.27988	0.585187	2.95209	0.855491	1.38543	0.351196	4.16088	0.65377	1.47744
0.27491	4.69645	0.127956	3.24832	0.421396	1.34224	0.585739	2.95699	0.856631	1.40463	0.354601	4.1726	0.654986	1.49813
0.278731	4.65348	0.130612	3.25195	0.422519	1.4064	0.586533	2.96375	0.857786	1.42383	0.358015	4.18368	0.656219	1.51889
0.282516	4.60866	0.133271	3.25539	0.423694	1.47242	0.587399	2.97119	0.858958	1.44295	0.361438	4.19411	0.657307	1.53694
0.286263	4.56182	0.135932	3.25853	0.424925	1.54039	0.588581	2.98137	0.860145	1.46196	0.364869	4.20391	0.658245	1.55237
0.289971	4.51293	0.138596	3.2614	0.426212	1.61028	0.59008	2.9939	0.861347	1.48103	0.368308	4.21311	0.659027	1.565
0.293638	4.4621	0.141262	3.26408	0.427557	1.68209	0.591902	3.00892	0.862565	1.50006	0.371755	4.22172	0.65965	1.57506
0.297263	4.4092	0.14393	3.26651	0.428961	1.75583	0.594051	3.02641	0.863799	1.51898	0.375208	4.22979	0.660111	1.58263
0.300844	4.35424	0.146601	3.26877	0.430426	1.83149	0.596532	3.04611	0.865048	1.53795	0.378668	4.23728	0.660407	1.58734
0.30438	4.29736	0.149273	3.27082	0.431954	1.90902	0.599029	3.06548	0.866312	1.55685	0.382133	4.24421	0.660834	1.59408
0.307868	4.23857	0.151946	3.27263	0.433546	1.98846	0.601542	3.08451	0.867592	1.57569	0.385604	4.25063	0.6613	1.60147
0.311307	4.1779	0.154621	3.27429	0.435204	2.06964	0.60407	3.10322	0.868887	1.5945	0.38908	4.25652	0.661938	1.61148
0.314695	4.11545	0.157297	3.27583	0.436928	2.15245	0.606614	3.12167	0.870198	1.61325	0.39256	4.26184	0.66275	1.62428
0.318033	4.05137	0.159975	3.27723	0.438722	2.2369	0.609172	3.13979	0.871524	1.63205	0.396045	4.26667	0.663741	1.63968
0.321317	3.9858	0.162653	3.27843	0.440584	2.3228	0.611745	3.15758	0.872865	1.65076	0.399533	4.27101	0.664915	1.65776
0.324547	3.91886	0.165333	3.27953	0.442518	2.40997	0.614333	3.17508	0.874222	1.66941	0.403025	4.27481	0.666278	1.67857
0.327721	3.85073	0.168013	3.2805	0.444523	2.49827	0.616934	3.1923	0.875593	1.68807	0.40652	4.27817	0.667658	1.69933
0.33084	3.78168	0.170694	3.28131	0.446601	2.58747	0.61955	3.20926	0.87698	1.70669	0.410017	4.28106	0.669055	1.72015
0.333902	3.71195	0.173376	3.28202	0.448752	2.67734	0.622179	3.22597	0.878383	1.72531	0.413516	4.28342	0.670469	1.74104
0.336906	3.64168	0.176058	3.28266	0.450976	2.76774	0.624822	3.24234	0.8798	1.74385	0.417017	4.28531	0.6719	1.76197
0.339853	3.57118	0.178741	3.28319	0.453275	2.85833	0.627478	3.25846	0.881233	1.76238	0.42052	4.28676	0.673349	1.78287
0.342743	3.50073	0.181424	3.28362	0.455648	2.9488	0.630147	3.27433	0.88268	1.7809	0.424023	4.28773	0.674814	1.80384
0.345574	3.43056	0.184107	3.28396	0.458094	3.03901	0.632829	3.2899	0.884143	1.79932	0.427527	4.28822	0.676297	1.82489
0.348349	3.36098	0.186791	3.28422	0.460614	3.12862	0.635524	3.30529	0.88543	1.81541	0.431031	4.28826	0.677797	1.84594
0.351067	3.29221	0.189474	3.28443	0.463207	3.21731	0.638231	3.32037	0.886536	1.82914	0.434535	4.28786	0.679314	1.86711
0.35373	3.2245	0.192158	3.28453	0.465872	3.30487	0.640951	3.33522	0.887457	1.84046	0.438039	4.28703	0.680848	1.8883
0.356337	3.15812	0.194842	3.28454	0.468608	3.39108	0.643682	3.34987	0.88819	1.84941	0.441542	4.2857	0.6824	1.90955
0.358891	3.09328	0.197526	3.28455	0.471414	3.47564	0.646425	3.36425	0.88873	1.85595	0.445043	4.28395	0.683969	1.9309
0.361392	3.03021	0.20021	3.28447	0.474289	3.55838	0.64918	3.37837	0.889077	1.86011	0.448543	4.28178	0.685555	1.95231
0.363843	2.96911	0.202894	3.2843	0.47723	3.639	0.651947	3.39224	0.889578	1.86611	0.452041	4.27915	0.687159	1.97382
0.366245	2.91005	0.205578	3.28414	0.480236	3.71739	0.654724	3.40593	0.890123	1.87274	0.455536	4.27608	0.688781	1.99536
0.368599	2.85316	0.208261	3.28393	0.483305	3.79341	0.657513	3.41946	0.890868	1.88169	0.459029	4.27254	0.69042	2.01702
0.370908	2.79871	0.210945	3.28361	0.486435	3.86696	0.660313	3.4327	0.891815	1.89288	0.462519	4.2686	0.692078	2.03879
0.373173	2.74664	0.213628	3.28329	0.489625	3.93784	0.663123	3.44571	0.892969	1.90656	0.466005	4.26421	0.693752	2.06062
0.375397	2.69701	0.216311	3.28296	0.492871	4.00602	0.665944	3.45856	0.894332	1.92253	0.469488	4.25938	0.695445	2.08255
0.377581	2.6499	0.218993	3.28255	0.496172	4.07151	0.668775	3.4712	0.89591	1.94084	0.472967	4.25413	0.697156	2.10459
0.379727	2.60526	0.221675	3.28209	0.499525	4.13419	0.671617	3.48362	0.897504	1.95909	0.476441	4.24845	0.698885	2.12679
0.381839	2.56319	0.224357	3.28165	0.502928	4.19409	0.674469	3.49585	0.899112	1.97736	0.47991	4.24236	0.700632	2.14904
0.383916	2.52362	0.227038	3.28118	0.50638	4.25119	0.67733	3.50793	0.900736	1.9956	0.483374	4.23585	0.702397	2.17144
0.385963	2.48646	0.229719	3.28061	0.509876	4.30553	0.680202	3.51977	0.902374	2.01382	0.486832	4.22887	0.704181	2.19396
0.38798	2.45172	0.2324	3.28008	0.513416	4.35722	0.683082	3.53142	0.904027	2.03208	0.490285	4.22146	0.705983	2.21653
0.38997	2.41932	0.23508	3.27952	0.516997	4.40619	0.685973	3.54292	0.905695	2.05027	0.493732	4.21362	0.707803	2.2393
0.391934	2.38913	0.23776	3.2789	0.520617	4.45256	0.688873	3.55426	0.907377	2.06846	0.497171	4.2054	0.709642	2.26221
0.393874	2.36114	0.240439	3.27831	0.524274	4.49645	0.691782	3.5654	0.909075	2.08662	0.500605	4.19678	0.7115	2.28523
0.395793	2.33532	0.243117	3.27767	0.527966	4.53786	0.6947	3.57636	0.910788	2.1048	0.50403	4.18767	0.713377	2.30839
0.397691	2.31148	0.245795	3.27702	0.53169	4.57689	0.697627	3.58718	0.912515	2.123	0.507448	4.17819	0.715273	2.33166
0.39957	2.28953	0.248473	3.2764	0.535446	4.61365	0.700562	3.59786	0.914257	2.14111	0.510859	4.16827	0.717188	2.35507
0.401433	2.26946	0.25115	3.27572	0.53923	4.64819	0.703506	3.60837	0.916014	2.15932	0.514261	4.15797	0.719122	2.37863
0.403279	2.25111	0.253827	3.275	0.543042	4.68062	0.706459	3.61872	0.917786	2.17748	0.517654	4.14726	0.721075	2.40236
0.405112	2.23442	0.256502	3.27431	0.54688	4.71103	0.709421	3.62895	0.919573	2.19558	0.521038	4.1361	0.723048	2.4262
0.406931	2.21931	0.259178	3.27363	0.550741	4.73951	0.71239	3.63903	0.921374	2.21369	0.524414	4.12455	0.72504	2.45019
0.408739	2.20566	0.261853	3.27291	0.554626	4.76615	0.715368	3.649	0.923191	2.23185	0.527779	4.1126	0.727052	2.47434
0.410536	2.19345	0.264527	3.27218	0.558531	4.79096	0.718354	3.65883	0.925022	2.24999	0.531135	4.10028	0.729084	2.4986
0.412324	2.18254	0.2672	3.27143	0.562455	4.81405	0.721347	3.6685	0.926868	2.26812	0.53448	4.08756	0.731136	2.52301
0.414103	2.17283	0.269873	3.27069	0.566398	4.83557	0.724349	3.6781	0.928729	2.28624	0.537815	4.07444	0.733207	2.54757
0.415875	2.16434	0.272546	3.26994	0.570358	4.85556	0.727359	3.68757	0.930604	2.30437	0.541139	4.06094	0.735299	2.57226
0.41764	2.15692	0.275217	3.26919	0.574334	4.87408	0.730376	3.6969	0.932495	2.32253	0.544452	4.04706	0.737411	2.59708
0.4194	2.1505	0.277888	3.26848	0.578324	4.89114	0.7334	3.70616	0.9344	2.34067	0.547753	4.03285	0.739544	2.62206
0.421155	2.14508	0.280559	3.26771	0.582327	4.90681	0.736433	3.71534	0.93632	2.35881	0.551043	4.01827	0.741696	2.64716
0.422905	2.14057	0.283229	3.2669	0.586343	4.92125	0.739472	3.72444	0.938255	2.37693	0.55432	4.00326	0.74387	2.67241
0.424653	2.13685	0.285898	3.26617	0.59037	4.93447	0.74252	3.73342	0.940205	2.3951	0.557585	3.98794	0.746064	2.69777
0.426398	2.13395	0.288567	3.26542	0.594408	4.94648	0.745574	3.74233	0.942169	2.41328	0.560838	3.97235	0.748279	2.72322
0.42814	2.13179	0.291235	3.26468	0.598454	4.95736	0.748636	3.75117	0.944149	2.43144	0.564077	3.95637	0.750515	2.74877
0.429882	2.13029	0.293902	3.26388	0.602509	4.96719	0.751705	3.75994	0.946143	2.44962	0.567304	3.94003	0.752771	2.77444
0.431622	2.12942	0.296569	3.26311	0.606572	4.9759	0.754781	3.7687	0.948152	2.46781	0.570517	3.92347	0.755049	2.80022
0.433362	2.12915	0.299235	3.26235	0.610642	4.98364	0.757864	3.77739	0.950176	2.48596	0.573716	3.90654	0.757348	2.8261
0.435102	2.12947	0.301901	3.26159	0.614717	4.99047	0.760954	3.78599	0.952215	2.50415	0.576901	3.88931	0.759668	2.85202
0.436842	2.13026	0.304565	3.26084	0.618797	4.99635	0.764051	3.79459	0.954269	2.52234	0.580072	3.87184	0.762009	2.87806
0.438583	2.13157	0.30723	3.26009	0.622882	5.00134	0.767155	3.80315	0.956337	2.54058	0.583229	3.85409	0.764371	2.90418
0.440326	2.13332	0.309893	3.25934	0.626971	5.00542	0.770267	3.81169	0.958421	2.55884	0.586371	3.83611	0.766755	2.93027
0.44207	2.13544	0.312556	3.25854	0.631063	5.00867	0.773385	3.82021	0.960519	2.57704	0.589498	3.8179	0.76916	2.95647
0.443815	2.13796	0.315219	3.25781	0.635157	5.01117	0.77651	3.82874	0.962632	2.59528	0.592611	3.79939	0.771587	2.98268
0.445564	2.14085	0.317881	3.25707	0.639253	5.01284	0.779642	3.83726	0.964761	2.61354	0.595708	3.78066	0.774035	3.0089
0.447314	2.14409	0.320542	3.25632	0.643349	5.01376	0.782781	3.84578	0.966904	2.63178	0.598789	3.76182	0.776504	3.03516
0.449068	2.14759	0.323203	3.25557	0.647447	5.01393	0.785927	3.85434	0.969062	2.65008	0.601856	3.74275	0.778995	3.0614
0.450824	2.15139	0.325863	3.25487	0.651544	5.01334	0.78908	3.86292	0.971235	2.66838	0.604906	3.72349	0.781507	3.08763
0.452584	2.15546	0.328522	3.25414	0.65564	5.01213	0.792241	3.87151	0.973423	2.68663	0.607941	3.70413	0.784041	3.11381
0.454347	2.15975	0.331181	3.25335	0.659735	5.01019	0.795408	3.88015	0.975626	2.70494	0.61096	3.6846	0.786596	3.13993
0.456113	2.16427	0.333839	3.25263	0.663828	5.00751	0.798582	3.88889	0.977843	2.72324	0.613963	3.66489	0.789173	3.16602
0.457884	2.169	0.336497	3.25193	0.667919	5.00424	0.801763	3.89761	0.980076	2.74153	0.616949	3.64514	0.791771	3.19205
0.459658	2.17395	0.339154	3.25121	0.672007	5.00032	0.804952	3.90643	0.982324	2.75991	0.61992	3.62533	0.79439	3.21793
0.461437	2.17901	0.34181	3.25047	0.676091	4.99572	0.808148	3.91535	0.984587	2.7782	0.622874	3.60541	0.79703	3.24372
0.463219	2.18422	0.344466	3.24977	0.680171	4.9905	0.811351	3.92428	0.986864	2.79653	0.625812	3.58542	0.799691	3.26944
0.465006	2.18966	0.347121	3.24908	0.684247	4.98468	0.814561	3.93338	0.989157	2.81488	0.628734	3.56541	0.802373	3.29499
0.466798	2.19514	0.349776	3.2484	0.688317	4.97826	0.817779	3.94257	0.991465	2.8332	0.631639	3.54538	0.805076	3.32038
0.468594	2.20076	0.35243	3.24769	0.692383	4.97116	0.821004	3.95188	0.993787	2.85154	0.634528	3.52535	0.807799	3.34564
0.470395	2.20653	0.355083	3.247	0.696442	4.96353	0.824237	3.96129	0.996125	2.8699	0.637401	3.50535	0.810544	3.37067
0.4722	2.21234	0.357737	3.24632	0.700495	4.95532	0.827478	3.9708	0.998478	2.88827	0.640257	3.48537	0.813308	3.39551
0.47401	2.21829	0.360389	3.2456	0.70454	4.9465	0.830727	3.98044	1.00085	2.89743	0.643097	3.4654	0.816093	3.42016
0.475825	2.22428	0.363041	3.24495	0.708579	4.93708	0.833984	3.99027			0.64592	3.44548	0.818898	3.44455
0.477645	2.23031	0.365692	3.24429	0.712609	4.92711	0.837248	4.00024			0.648728	3.42571	0.821722	3.46869
0.47947	2.23651	0.368343	3.24359	0.716631	4.91661	0.840521	4.01036			0.651519	3.40601	0.824567	3.49257
0.481301	2.24269	0.370993	3.24294	0.720644	4.90548	0.843802	4.02068			0.654294	3.38639	0.82743	3.51621
0.483136	2.24888	0.373643	3.24233	0.724648	4.89381	0.847092	4.0311			0.657053	3.36693	0.830313	3.53955
0.484976	2.25514	0.376292	3.24169	0.728642	4.88159	0.85039	4.04174			0.659797	3.34756	0.833215	3.56257
0.486821	2.26145	0.378941	3.24099	0.732626	4.86884	0.853698	4.05257			0.662524	3.32835	0.836135	3.58528
0.488672	2.26782	0.381589	3.24035	0.736599	4.85558	0.857014	4.06358			0.665236	3.30936	0.839074	3.60765
0.490528	2.27417	0.384237	3.23978	0.740562	4.84168	0.860339	4.07477			0.667933	3.29055	0.842031	3.6297
0.492388	2.28053	0.386884	3.23912	0.744512	4.8273	0.863673	4.08616			0.670614	3.27187	0.845006	3.65137
