Sym0		Asym0		Sym1		Sym2		Sym3		Sym4		Asym1		Asym2		Asym3	
457  Points		493  Points		183  Points		151  Points		135  Points		99  Points		303  Points		162  Points		131  Points	
Freq (MHz)	Vph (m/ms)	Freq (MHz)	Vph (m/ms)	Freq (MHz)	Vph (m/ms)	Freq (MHz)	Vph (m/ms)	Freq (MHz)	Vph (m/ms)	Freq (MHz)	Vph (m/ms)	Freq (MHz)	Vph (m/ms)	Freq (MHz)	Vph (m/ms)	Freq (MHz)	Vph (m/ms)
0.00526643	6.81551	0.000442626	0.208626	0.279509	189238	0.512745	11243.8	0.559043	715.065	0.838533	1536.08	0.139839	201.982	0.419292	534.238	0.698774	2190.67
0.0116158	6.81515	0.000911375	0.298487	0.279567	299.588	0.512762	524.673	0.559142	326.315	0.838578	567.532	0.14022	86.3405	0.419405	244.332	0.698816	558.752
0.0179638	6.81455	0.00154009	0.386471	0.279742	150.007	0.512808	268.628	0.559314	211.445	0.838666	348.098	0.140903	55.1323	0.419601	158.446	0.698906	320.251
0.0243099	6.8137	0.00232142	0.47215	0.280034	100.135	0.512884	180.549	0.55956	156.438	0.838795	251.063	0.141883	40.6843	0.419881	117.288	0.699046	224.48
0.0306532	6.8126	0.00324653	0.555114	0.280442	75.2207	0.512991	135.986	0.55988	124.181	0.838967	196.356	0.143153	32.394	0.420245	93.1471	0.699234	172.831
0.0369931	6.81124	0.00430577	0.635061	0.280965	60.2936	0.513128	109.082	0.560272	102.986	0.83918	161.245	0.144701	27.0429	0.420691	77.2858	0.699472	140.528
0.0433288	6.80962	0.00548891	0.711755	0.281603	50.3614	0.513296	91.0782	0.560736	88.0004	0.839435	136.804	0.146518	23.3215	0.421221	66.0737	0.699758	118.42
0.0496595	6.80773	0.00678539	0.78503	0.282354	43.2837	0.513496	78.1878	0.561273	76.848	0.839732	118.812	0.14859	20.5968	0.421832	57.7322	0.700094	102.34
0.0559845	6.80558	0.00818479	0.854792	0.283218	37.9901	0.513728	68.5048	0.56188	68.2277	0.840071	105.016	0.150904	18.5251	0.422526	51.2874	0.700478	90.1222
0.062303	6.80315	0.00967686	0.921003	0.284193	33.886	0.513994	60.9658	0.562559	61.3674	0.840451	94.1034	0.153447	16.9039	0.423302	46.1611	0.700911	80.5253
0.0686142	6.80045	0.0112518	0.983672	0.285277	30.6143	0.514293	54.9309	0.563308	55.7799	0.840873	85.2567	0.156204	15.6059	0.424159	41.9884	0.701392	72.7893
0.0749173	6.79746	0.0129006	1.04287	0.286469	27.9479	0.514627	49.9918	0.564126	51.1426	0.841337	77.941	0.159164	14.5475	0.425096	38.5278	0.701922	66.422
0.0812114	6.7942	0.0146146	1.09868	0.287767	25.7353	0.514997	45.8757	0.565013	47.2334	0.841842	71.7914	0.162312	13.6711	0.426113	35.6127	0.702501	61.0906
0.0874955	6.79063	0.0163861	1.15122	0.28917	23.8717	0.515404	42.3934	0.565967	43.8944	0.842389	66.5503	0.165636	12.9359	0.427209	33.125	0.703127	56.5623
0.0937689	6.78676	0.0182079	1.20063	0.290675	22.2821	0.515849	39.4099	0.566989	41.0103	0.842976	62.0309	0.169124	12.3124	0.428384	30.9782	0.703801	52.6691
0.10003	6.78258	0.0200737	1.24704	0.292281	20.9117	0.516332	36.8256	0.568077	38.4948	0.843605	58.0943	0.172765	11.7786	0.429636	29.1076	0.704524	49.2867
0.106279	6.77808	0.0219776	1.29062	0.293984	19.7191	0.516856	34.566	0.569231	36.2823	0.844275	54.635	0.176054	11.3732	0.430966	27.4641	0.705294	46.3214
0.112514	6.77326	0.0239147	1.33152	0.295784	18.6729	0.517421	32.5741	0.570449	34.3218	0.844986	51.5716	0.178937	11.0648	0.432371	26.0094	0.706111	43.701
0.118734	6.7681	0.0258803	1.3699	0.297677	17.7485	0.518028	30.8055	0.571731	32.573	0.845738	48.8403	0.181374	10.8321	0.433852	24.7134	0.706976	41.3691
0.124938	6.7626	0.0278705	1.40591	0.299662	16.9265	0.51868	29.225	0.573076	31.0039	0.846531	46.3901	0.183333	10.661	0.435407	23.552	0.707888	39.2809
0.131125	6.75673	0.0298818	1.4397	0.301736	16.1916	0.519376	27.8046	0.574483	29.5886	0.847364	44.18	0.184791	10.5418	0.437036	22.5059	0.708847	37.4005
0.137293	6.75048	0.0319111	1.47142	0.303897	15.531	0.520119	26.5215	0.575952	28.3059	0.848237	42.1768	0.185732	10.4683	0.438736	21.5591	0.709852	35.6986
0.143442	6.74386	0.033692	1.49748	0.306142	14.9346	0.52091	25.3572	0.577481	27.1384	0.849151	40.3528	0.187095	10.3662	0.440509	20.6985	0.710904	34.1514
0.149569	6.73683	0.0352182	1.5186	0.308469	14.3939	0.521749	24.2961	0.57907	26.0715	0.850105	38.6853	0.188589	10.2599	0.442352	19.9133	0.712002	32.7388
0.155673	6.72938	0.0364852	1.53534	0.310876	13.9019	0.52264	23.3256	0.580717	25.0931	0.851099	37.1553	0.190643	10.1224	0.444264	19.1944	0.713146	31.4443
0.161754	6.72151	0.0374897	1.54813	0.31336	13.4525	0.523582	22.4348	0.582423	24.1929	0.852133	35.7464	0.193274	9.95946	0.446244	18.5339	0.714336	30.2539
0.167808	6.71318	0.0382299	1.5573	0.31592	13.0408	0.524577	21.6145	0.584186	23.362	0.853207	34.4452	0.196506	9.77728	0.448292	17.9253	0.71557	29.1557
0.173834	6.70438	0.0387042	1.56306	0.318553	12.6625	0.525627	20.8571	0.586006	22.5929	0.85432	33.2399	0.200361	9.58203	0.450406	17.363	0.71685	28.1397
0.179831	6.69509	0.0393869	1.57121	0.321257	12.3139	0.526733	20.1558	0.587881	21.8793	0.855472	32.1203	0.204866	9.37955	0.452585	16.8421	0.718175	27.197
0.185797	6.68529	0.0401298	1.57987	0.324031	11.992	0.527897	19.505	0.589812	21.2155	0.856663	31.0779	0.209452	9.19716	0.454829	16.3584	0.719544	26.3202
0.191729	6.67496	0.0411419	1.59136	0.326871	11.6939	0.52912	18.8995	0.591797	20.5967	0.857893	30.105	0.214112	9.03226	0.457134	15.9082	0.720958	25.5027
0.197624	6.66406	0.0424241	1.60542	0.3294	11.4517	0.530403	18.3352	0.593835	20.0185	0.859162	29.195	0.218841	8.88264	0.459502	15.4885	0.722415	24.7389
0.203482	6.65259	0.0439779	1.62175	0.331595	11.2572	0.531748	17.8081	0.595927	19.4773	0.86047	28.3421	0.223634	8.74644	0.46193	15.0962	0.723916	24.0238
0.2093	6.6405	0.0458045	1.64	0.333436	11.1039	0.533155	17.315	0.598071	18.9697	0.861816	27.5412	0.228488	8.62208	0.464418	14.729	0.72546	23.353
0.215074	6.62778	0.0479047	1.65983	0.334909	10.9874	0.534628	16.8529	0.600266	18.4928	0.863199	26.7879	0.233396	8.50818	0.466964	14.3847	0.727047	22.7226
0.220802	6.6144	0.0500087	1.67854	0.336001	10.9042	0.536166	16.4192	0.602513	18.0441	0.864621	26.078	0.238356	8.40358	0.469567	14.0614	0.728676	22.1292
0.226481	6.60031	0.0521157	1.69622	0.336704	10.852	0.537772	16.0115	0.60481	17.6212	0.866081	25.408	0.243364	8.30727	0.472227	13.7572	0.730348	21.5696
0.232109	6.58551	0.0542249	1.71292	0.33772	10.7784	0.539446	15.6278	0.607156	17.2221	0.867577	24.7748	0.248417	8.21836	0.474941	13.4706	0.732061	21.0413
0.237682	6.56995	0.056336	1.72873	0.338832	10.7002	0.541191	15.2663	0.609552	16.8449	0.869111	24.1754	0.25351	8.13608	0.477709	13.2003	0.733816	20.5416
0.243196	6.5536	0.0584484	1.7437	0.340356	10.5969	0.543006	14.9253	0.611996	16.4879	0.870682	23.6072	0.258642	8.05976	0.48053	12.945	0.735612	20.0685
0.248649	6.53643	0.0605618	1.75789	0.342305	10.471	0.544894	14.6032	0.614488	16.1496	0.87229	23.0681	0.263808	7.98882	0.483402	12.7035	0.737449	19.6199
0.254037	6.51842	0.0626757	1.77135	0.344691	10.3254	0.546855	14.2987	0.617027	15.8288	0.873934	22.5558	0.269007	7.92272	0.486325	12.4749	0.739326	19.1941
0.259356	6.49953	0.0647901	1.78412	0.347531	10.1633	0.548891	14.0106	0.619613	15.5241	0.875615	22.0685	0.274236	7.86101	0.489298	12.2582	0.741243	18.7894
0.264604	6.47973	0.0669045	1.79626	0.350845	9.98809	0.551003	13.7378	0.622245	15.2344	0.877331	21.6045	0.279492	7.80328	0.492319	12.0525	0.7432	18.4043
0.269775	6.459	0.0690189	1.80781	0.354218	9.82354	0.553191	13.4793	0.624923	14.9588	0.879083	21.1621	0.284774	7.74917	0.495387	11.8572	0.745196	18.0376
0.274866	6.43731	0.071133	1.8188	0.357648	9.66884	0.555457	13.234	0.627646	14.6962	0.880871	20.74	0.290078	7.69835	0.498099	11.6948	0.747231	17.6879
0.279875	6.41464	0.0732467	1.82927	0.361136	9.52327	0.557801	13.0013	0.630414	14.4459	0.882694	20.3368	0.295404	7.65052	0.500438	11.5619	0.749304	17.3543
0.284797	6.39097	0.0753601	1.83925	0.364683	9.38619	0.560223	12.7802	0.633226	14.207	0.884552	19.9513	0.300749	7.60543	0.50239	11.4555	0.751416	17.0356
0.289629	6.3663	0.0774728	1.84877	0.368288	9.257	0.562726	12.5701	0.636082	13.9788	0.886444	19.5825	0.306112	7.56285	0.503946	11.3736	0.753565	16.7309
0.294368	6.34061	0.0795849	1.85787	0.371953	9.13518	0.565308	12.3703	0.638981	13.7608	0.888371	19.2293	0.31149	7.52256	0.505097	11.3146	0.755751	16.4394
0.29901	6.3139	0.0816964	1.86656	0.375677	9.02025	0.567971	12.1803	0.641922	13.5522	0.890332	18.8907	0.316881	7.48437	0.505836	11.2774	0.757975	16.1602
0.303554	6.28617	0.0838072	1.87488	0.379463	8.91178	0.570714	11.9994	0.644906	13.3526	0.892328	18.566	0.322286	7.44811	0.506903	11.2246	0.760235	15.8927
0.307996	6.25744	0.0859172	1.88284	0.38331	8.80938	0.573171	11.8488	0.647932	13.1613	0.894357	18.2544	0.3277	7.41362	0.508067	11.1681	0.762531	15.6362
0.312336	6.22772	0.0880265	1.89046	0.387221	8.71268	0.575314	11.7253	0.650999	12.978	0.896419	17.955	0.333125	7.38076	0.50966	11.0927	0.764863	15.39
0.316571	6.19703	0.090135	1.89777	0.391195	8.62137	0.577119	11.6265	0.654108	12.8022	0.898514	17.6673	0.338556	7.3494	0.511688	10.9998	0.76723	15.1535
0.3207	6.16542	0.0922427	1.90478	0.395234	8.53513	0.578568	11.5504	0.657257	12.6335	0.900642	17.3906	0.343995	7.31942	0.514162	10.891	0.769632	14.9263
0.324723	6.1329	0.0943497	1.91152	0.399339	8.45368	0.579646	11.4955	0.660446	12.4714	0.902803	17.1242	0.349438	7.29071	0.517092	10.7679	0.772069	14.7078
0.328639	6.09954	0.0964559	1.91798	0.40351	8.37677	0.580341	11.4609	0.663676	12.3157	0.904996	16.8677	0.354886	7.26317	0.520492	10.6324	0.77454	14.4975
0.332449	6.06537	0.0985613	1.9242	0.407748	8.30414	0.581348	11.4118	0.666945	12.1661	0.907221	16.6206	0.360335	7.23672	0.523932	10.5028	0.777044	14.2951
0.336154	6.03045	0.100666	1.93018	0.412054	8.23557	0.582452	11.3593	0.669827	12.0403	0.909478	16.3823	0.365786	7.21126	0.527409	10.3786	0.779582	14.1001
0.339754	5.99484	0.10277	1.93594	0.416428	8.17083	0.583969	11.2892	0.672306	11.9364	0.911766	16.1524	0.371238	7.18672	0.530924	10.2597	0.782153	13.9122
0.343252	5.9586	0.104873	1.94148	0.420869	8.10971	0.585916	11.2029	0.674373	11.8526	0.914086	15.9306	0.376688	7.16303	0.534476	10.1457	0.784757	13.731
0.346649	5.92179	0.106976	1.94683	0.425377	8.05202	0.58831	11.1018	0.676017	11.7878	0.916436	15.7164	0.382135	7.14012	0.538063	10.0363	0.787393	13.5561
0.349947	5.88448	0.109078	1.95198	0.42995	7.99755	0.591173	10.9875	0.677232	11.7408	0.918817	15.5094	0.387579	7.11793	0.541686	9.93124	0.79006	13.3873
0.353149	5.84673	0.111179	1.95695	0.434589	7.94613	0.594533	10.8618	0.678013	11.7111	0.921228	15.3093	0.393019	7.09641	0.545343	9.83037	0.792759	13.2242
0.356258	5.8086	0.113279	1.96176	0.439292	7.89757	0.597971	10.7418	0.679138	11.6689	0.923669	15.1158	0.398453	7.07549	0.549034	9.73343	0.795489	13.0667
0.359277	5.77016	0.115379	1.96639	0.444056	7.8517	0.601485	10.627	0.680365	11.6235	0.92614	14.9287	0.40388	7.05514	0.552758	9.64022	0.79825	12.9144
0.362208	5.73147	0.117478	1.97088	0.44888	7.80837	0.605074	10.5173	0.682043	11.5628	0.928641	14.7475	0.409299	7.03531	0.556514	9.55055	0.801041	12.7671
0.365055	5.6926	0.119577	1.97521	0.453762	7.7674	0.608738	10.4124	0.684177	11.4875	0.931171	14.572	0.41471	7.01594	0.560303	9.46424	0.803863	12.6246
0.367821	5.65359	0.121675	1.97941	0.458699	7.72865	0.612476	10.312	0.686778	11.3987	0.933729	14.4021	0.42011	6.99701	0.564122	9.38112	0.806713	12.4867
0.370509	5.6145	0.123773	1.98347	0.463688	7.69197	0.616285	10.2159	0.689855	11.2975	0.936317	14.2374	0.425499	6.97848	0.567973	9.30104	0.809221	12.37
0.373122	5.57539	0.12587	1.9874	0.468728	7.65722	0.620164	10.1238	0.693422	11.1853	0.938932	14.0777	0.430875	6.9603	0.571853	9.22385	0.811377	12.2731
0.375664	5.5363	0.127966	1.99121	0.473814	7.62426	0.624112	10.0356	0.697028	11.077	0.941576	13.9229	0.436239	6.94245	0.575764	9.14943	0.813171	12.1947
0.378138	5.49728	0.130062	1.9949	0.478944	7.59299	0.628127	9.9511	0.700671	10.9724	0.944248	13.7726	0.441588	6.9249	0.579703	9.07764	0.814597	12.1338
0.380547	5.45837	0.132158	1.99849	0.484116	7.56326	0.632208	9.87006	0.704352	10.8714	0.946947	13.6268	0.446921	6.90761	0.583672	9.00835	0.81565	12.0895
0.382894	5.4196	0.134253	2.00196	0.489327	7.53499	0.636351	9.79232	0.70807	10.7739	0.949673	13.4853	0.452238	6.89057	0.587669	8.94147	0.816326	12.0615
0.385182	5.38102	0.136348	2.00534	0.494572	7.50805	0.640557	9.71771	0.711827	10.6797	0.952426	13.3478	0.457537	6.87373	0.591694	8.87687	0.8173	12.0215
0.387413	5.34266	0.138442	2.00861	0.499851	7.48235	0.644822	9.64608	0.715622	10.5886	0.955206	13.2142	0.462818	6.85708	0.595747	8.81447	0.818362	11.9785
0.389591	5.30454	0.140536	2.0118	0.50516	7.4578	0.649145	9.57726	0.719454	10.5005	0.958013	13.0844	0.468079	6.8406	0.599827	8.75416	0.819813	11.9207
0.391719	5.26669	0.142629	2.01489	0.510495	7.43432	0.653524	9.51113	0.723325	10.4154	0.960845	12.9582	0.473319	6.82426	0.603935	8.69587	0.821656	11.8489
0.393533	5.23395	0.144722	2.0179	0.515856	7.41182	0.657956	9.44753	0.727235	10.3331	0.963704	12.8354	0.478536	6.80804	0.608069	8.6395	0.823899	11.7639
0.395052	5.20623	0.146815	2.02083	0.521239	7.39024	0.66244	9.38634	0.731183	10.2534	0.966216	12.7312	0.483731	6.79192	0.61223	8.58497	0.82655	11.6665
0.396289	5.18344	0.148907	2.02367	0.526642	7.36949	0.666973	9.32744	0.735169	10.1764	0.968372	12.6443	0.488902	6.77588	0.616417	8.53222	0.829617	11.5578
0.397256	5.16551	0.150999	2.02644	0.532063	7.34952	0.671554	9.2707	0.739195	10.1018	0.970166	12.5738	0.494048	6.75991	0.620631	8.48117	0.83271	11.4522
0.397961	5.15238	0.153091	2.02914	0.537499	7.33028	0.676179	9.21602	0.743261	10.0297	0.971591	12.5188	0.499167	6.74398	0.624871	8.43175	0.83583	11.3497
0.398409	5.144	0.155182	2.03177	0.542949	7.31169	0.680847	9.16328	0.747366	9.95985	0.972642	12.4789	0.50426	6.72809	0.629136	8.38391	0.838975	11.2501
0.39905	5.13199	0.157273	2.03433	0.54841	7.29372	0.685555	9.11238	0.751512	9.89227	0.973317	12.4535	0.509324	6.71221	0.633427	8.33757	0.842147	11.1533
0.399742	5.11898	0.159364	2.03683	0.553881	7.27632	0.690302	9.06323	0.755698	9.82686	0.974289	12.4173	0.514358	6.69634	0.637744	8.29269	0.845343	11.0591
0.400674	5.10136	0.161454	2.03926	0.55936	7.25945	0.695084	9.01574	0.759926	9.76354	0.975349	12.3783	0.519362	6.68046	0.642086	8.24922	0.848565	10.9676
0.40184	5.0792	0.163544	2.04163	0.564845	7.24305	0.6999	8.9698	0.764195	9.70225	0.976795	12.3259	0.524335	6.66456	0.646454	8.20709	0.851811	10.8786
0.403233	5.05259	0.165634	2.04395	0.570335	7.22711	0.704747	8.92535	0.768507	9.64293	0.978632	12.2605	0.529276	6.64862	0.650846	8.16626	0.855082	10.7919
0.404841	5.02166	0.167723	2.04621	0.575828	7.21157	0.709623	8.8823	0.772862	9.58552	0.980866	12.1829	0.534183	6.63263	0.655264	8.12669	0.858377	10.7076
0.406655	4.98653	0.169813	2.04842	0.581323	7.19642	0.714526	8.84056	0.77726	9.52994	0.983503	12.0937	0.539056	6.61659	0.659706	8.08832	0.861696	10.6255
0.408437	4.95182	0.171902	2.05057	0.586819	7.18162	0.719453	8.80008	0.781703	9.47617	0.986552	11.9937	0.543893	6.60048	0.664173	8.05112	0.865039	10.5456
0.41019	4.91751	0.173991	2.05267	0.592313	7.16715	0.724401	8.76077	0.78619	9.42413	0.989625	11.8964	0.548694	6.58431	0.668665	8.01505	0.868405	10.4677
0.411913	4.88363	0.176079	2.05473	0.597806	7.15298	0.72937	8.72258	0.790724	9.37378	0.99272	11.8014	0.553459	6.56805	0.673182	7.98007	0.871794	10.3919
0.41361	4.85017	0.178168	2.05674	0.603296	7.13908	0.734356	8.68543	0.795303	9.32507	0.995839	11.7088	0.558185	6.5517	0.677722	7.94613	0.875206	10.3179
0.415281	4.81714	0.180256	2.0587	0.608782	7.12544	0.739357	8.64927	0.79993	9.27796	0.998981	11.6184	0.562873	6.53525	0.682287	7.91321	0.878641	10.2459
0.416928	4.78453	0.182344	2.06062	0.614263	7.11203	0.744372	8.61405	0.804604	9.23241	1.00215	11.5303	0.567522	6.51871	0.686876	7.88127	0.882097	10.1756
0.418553	4.75236	0.184432	2.0625	0.619738	7.09884	0.749398	8.5797	0.809326	9.18836			0.57213	6.50206	0.691489	7.85028	0.885576	10.1072
0.420156	4.72063	0.186519	2.06434	0.625205	7.08585	0.754432	8.54618	0.814097	9.14579			0.576698	6.4853	0.696125	7.82019	0.889077	10.0403
0.421739	4.68932	0.188607	2.06613	0.630665	7.07304	0.759474	8.51344	0.818918	9.10465			0.581224	6.46843	0.700785	7.79099	0.8926	9.97517
0.423302	4.65845	0.190694	2.06789	0.636116	7.0604	0.764521	8.48144	0.823788	9.0649			0.585708	6.45144	0.705467	7.76264	0.896144	9.91157
0.424848	4.62801	0.192781	2.06961	0.641557	7.04791	0.769571	8.45012	0.828709	9.0265			0.59015	6.43433	0.710172	7.73512	0.899709	9.84951
0.426377	4.598	0.194868	2.0713	0.646989	7.03556	0.774624	8.41946	0.83368	8.98942			0.594548	6.4171	0.7149	7.70839	0.903295	9.78892
0.42789	4.56841	0.196954	2.07295	0.652408	7.02334	0.779676	8.38942	0.838702	8.95362			0.598903	6.39975	0.71965	7.68242	0.906902	9.72977
0.429388	4.53925	0.199041	2.07457	0.657817	7.01124	0.784728	8.35997	0.843775	8.91907			0.603214	6.38227	0.724421	7.6572	0.910529	9.67201
0.430872	4.51051	0.201127	2.07615	0.663212	6.99924	0.789777	8.33107	0.848899	8.88572			0.607481	6.36468	0.729213	7.63269	0.914177	9.61559
0.432342	4.48219	0.203214	2.07771	0.668595	6.98734	0.794822	8.30269	0.854074	8.85355			0.611703	6.34696	0.734026	7.60886	0.917845	9.56048
0.433801	4.45429	0.2053	2.07923	0.673963	6.97553	0.799863	8.27482	0.8593	8.82251			0.615881	6.32912	0.73886	7.58571	0.921533	9.50664
0.435247	4.42679	0.207386	2.08072	0.679318	6.96379	0.804899	8.24742	0.864576	8.79257			0.620014	6.31117	0.743713	7.56319	0.925241	9.45402
0.436683	4.3997	0.209471	2.08218	0.684657	6.95212	0.809929	8.22048	0.869902	8.7637			0.624102	6.29309	0.748586	7.54129	0.928968	9.4026
0.438108	4.37301	0.211557	2.08362	0.68998	6.94052	0.814952	8.19398	0.875277	8.73586			0.628144	6.2749	0.753477	7.51998	0.932715	9.35233
0.439524	4.34672	0.213643	2.08503	0.695287	6.92897	0.819968	8.1679	0.880702	8.70901			0.632142	6.2566	0.758387	7.49924	0.936481	9.30318
0.440931	4.32082	0.215728	2.08641	0.700578	6.91746	0.824977	8.14222	0.886174	8.68312			0.636094	6.2382	0.763313	7.47906	0.940266	9.25512
0.44233	4.29531	0.217813	2.08776	0.705851	6.90599	0.829979	8.11695	0.891694	8.65817			0.640001	6.21968	0.768257	7.4594	0.94407	9.20811
0.44372	4.27018	0.219899	2.08909	0.711106	6.89456	0.834973	8.09206	0.89726	8.6341			0.643863	6.20107	0.773217	7.44026	0.947893	9.16214
0.445104	4.24543	0.221984	2.0904	0.716342	6.88316	0.83996	8.06754	0.902871	8.61089			0.64768	6.18236	0.778193	7.4216	0.951734	9.11716
0.446481	4.22105	0.224069	2.09168	0.72156	6.87177	0.844939	8.04339	0.908526	8.58852			0.651453	6.16355	0.783183	7.40341	0.955594	9.07316
0.447851	4.19704	0.226153	2.09294	0.726759	6.86041	0.849912	8.0196	0.914225	8.56693			0.655181	6.14466	0.788188	7.38567	0.959472	9.03009
0.449216	4.17339	0.228238	2.09418	0.731937	6.84905	0.854878	7.99617	0.919965	8.54611			0.658864	6.12568	0.793206	7.36836	0.963368	8.98795
0.450576	4.1501	0.230323	2.09539	0.737095	6.83771	0.859838	7.97308	0.925746	8.52602			0.662504	6.10662	0.798237	7.35147	0.967282	8.9467
0.45193	4.12716	0.232407	2.09658	0.742232	6.82636	0.864793	7.95033	0.931566	8.50663			0.666101	6.08749	0.80328	7.33497	0.971213	8.90631
0.453281	4.10457	0.234492	2.09776	0.747348	6.81502	0.869742	7.92793	0.937425	8.48791			0.669653	6.06829	0.808334	7.31886	0.975163	8.86677
0.454626	4.08231	0.236576	2.09891	0.752442	6.80367	0.874687	7.90586	0.94332	8.46984			0.673163	6.04903	0.813399	7.30311	0.979129	8.82805
0.455969	4.0604	0.23866	2.10004	0.757514	6.79231	0.879628	7.88413	0.949251	8.45238			0.676631	6.0297	0.818473	7.28771	0.983113	8.79013
0.457308	4.03881	0.240745	2.10116	0.762564	6.78093	0.884565	7.86272	0.955216	8.43552			0.680056	6.01032	0.823556	7.27264	0.987114	8.75299
0.458643	4.01755	0.242829	2.10225	0.76759	6.76954	0.8895	7.84164	0.961214	8.41921			0.683439	5.9909	0.828648	7.25789	0.991132	8.7166
0.459977	3.99661	0.244913	2.10333	0.772593	6.75813	0.894432	7.82088	0.967244	8.40345			0.686781	5.97142	0.833748	7.24344	0.995168	8.68096
0.461307	3.97598	0.246996	2.10438	0.777572	6.7467	0.899363	7.80045	0.973304	8.3882			0.690083	5.95191	0.838854	7.22928	0.999219	8.64604
0.462636	3.95567	0.24908	2.10543	0.782527	6.73525	0.904292	7.78033	0.979393	8.37345			0.693344	5.93237	0.843966	7.2154	1.00329	8.61181
0.463962	3.93566	0.251164	2.10645	0.787457	6.72376	0.909221	7.76053	0.985511	8.35916			0.696565	5.91279	0.849083	7.20179		
