Sym0		Asym0		Sym1		Sym2		Sym3		Asym1		Asym2		Asym3	
470  Points		492  Points		202  Points		141  Points		126  Points		367  Points		156  Points		124  Points	
Freq (MHz)	Vph (m/ms)	Freq (MHz)	Vph (m/ms)	Freq (MHz)	Vph (m/ms)	Freq (MHz)	Vph (m/ms)	Freq (MHz)	Vph (m/ms)	Freq (MHz)	Vph (m/ms)	Freq (MHz)	Vph (m/ms)	Freq (MHz)	Vph (m/ms)
0.00355011	7.44725	0.000331984	0.188979	0.279546	388.074	0.434609	490.699	0.559017	9485.76	0.139926	153.522	0.419265	2048.14	0.698798	760.972
0.0104879	7.44672	0.000772854	0.287475	0.279707	169.31	0.4347	239.189	0.55906	564.35	0.140456	76.2049	0.419334	369.002	0.698879	377.774
0.0174236	7.44569	0.00138957	0.383848	0.279994	108.368	0.434854	158.182	0.55918	290.888	0.141339	50.9359	0.419498	202.843	0.699015	251.292
0.0243556	7.44414	0.00217354	0.47751	0.280406	79.7643	0.435072	118.201	0.559377	195.996	0.142565	38.4633	0.419757	139.929	0.699206	188.294
0.0312826	7.44208	0.00311443	0.567964	0.280942	63.1739	0.435354	94.3863	0.55965	147.832	0.144125	31.0734	0.420111	106.858	0.699452	150.579
0.0382031	7.43949	0.00420064	0.654795	0.281601	52.3538	0.435701	78.5872	0.559999	118.709	0.146005	26.2131	0.42056	86.4784	0.699751	125.476
0.0451155	7.43637	0.00541997	0.737723	0.282382	44.7479	0.436112	67.3443	0.560424	99.2059	0.148189	22.7926	0.421103	72.6682	0.700106	107.568
0.0520182	7.43269	0.00675979	0.81654	0.283284	39.1157	0.43659	58.9384	0.560926	85.2367	0.150661	20.2683	0.42174	62.6976	0.700515	94.1532
0.0589097	7.42847	0.00820781	0.891158	0.284303	34.7818	0.437135	52.4189	0.561503	74.7425	0.153404	18.3388	0.42247	55.1653	0.700977	83.7302
0.0657884	7.42369	0.00975198	0.961547	0.285438	31.3476	0.437748	47.2172	0.562155	66.573	0.156401	16.8233	0.423293	49.2777	0.701494	75.4007
0.0726524	7.41831	0.011381	1.02776	0.286688	28.5622	0.43843	42.9722	0.562882	60.0351	0.159635	15.607	0.424208	44.5519	0.702065	68.5929
0.0795	7.41235	0.0130845	1.08989	0.288048	26.2602	0.439184	39.4441	0.563684	54.6864	0.163089	14.6136	0.425214	40.6773	0.70269	62.9259
0.0863293	7.40576	0.0148527	1.14808	0.289517	24.3278	0.440009	36.4667	0.56456	50.231	0.166747	13.7901	0.42631	37.4448	0.703368	58.1361
0.0931382	7.39854	0.0166771	1.20249	0.291092	22.6842	0.440908	33.9219	0.565509	46.4638	0.170594	13.099	0.427496	34.7086	0.704099	54.0354
0.0999248	7.39065	0.0185497	1.25332	0.292771	21.2707	0.441883	31.723	0.566532	43.2379	0.174616	12.5126	0.428771	32.3639	0.704883	50.4857
0.106687	7.38209	0.0204638	1.30076	0.29455	20.0432	0.442935	29.805	0.567627	40.4455	0.178799	12.0105	0.430132	30.3335	0.70572	47.3837
0.113422	7.3728	0.0224132	1.34502	0.296426	18.9683	0.444066	28.1182	0.568794	38.0056	0.18313	11.5769	0.43158	28.5591	0.706609	44.6503
0.120127	7.36277	0.0243926	1.38629	0.298398	18.0201	0.445278	26.6243	0.570033	35.8562	0.187598	11.1997	0.433114	26.9962	0.707551	42.2239
0.126801	7.35196	0.0263974	1.42479	0.300461	17.1782	0.446573	25.2927	0.571342	33.949	0.192192	10.8694	0.434731	25.6098	0.708544	40.0561
0.133439	7.34034	0.0284235	1.46069	0.302614	16.4263	0.447953	24.0991	0.572722	32.2458	0.196902	10.5783	0.436432	24.3723	0.709589	38.1079
0.14004	7.32787	0.0302039	1.49002	0.304854	15.7513	0.449419	23.024	0.574171	30.7161	0.201718	10.3205	0.438214	23.2615	0.710685	36.3481
0.146599	7.31449	0.0317308	1.51366	0.307179	15.1424	0.450975	22.0512	0.575689	29.3352	0.206632	10.0909	0.440076	22.2595	0.711832	34.7508
0.153114	7.30018	0.0329989	1.53232	0.309586	14.591	0.452623	21.1674	0.577276	28.0828	0.211635	9.88546	0.442018	21.3514	0.71303	33.2949
0.15958	7.28487	0.0340049	1.54653	0.312073	14.0895	0.454363	20.3616	0.578929	26.9421	0.216721	9.70085	0.444037	20.5252	0.714278	31.9626
0.165994	7.26851	0.0347462	1.55669	0.31464	13.632	0.456199	19.6245	0.58065	25.8992	0.221883	9.53427	0.446132	19.7706	0.715576	30.7391
0.172351	7.25106	0.0352213	1.56306	0.317285	13.2132	0.458132	18.9482	0.582436	24.9423	0.226437	9.40196	0.448302	19.079	0.716923	29.6118
0.178647	7.23245	0.0359051	1.57205	0.320007	12.8288	0.460164	18.3261	0.584288	24.0616	0.230358	9.29758	0.450545	18.4432	0.718319	28.5701
0.184877	7.21262	0.0366496	1.5816	0.322806	12.4751	0.462297	17.7524	0.586203	23.2485	0.233626	9.21655	0.452861	17.857	0.719763	27.6046
0.191036	7.19149	0.0376636	1.59423	0.325682	12.1488	0.464534	17.2221	0.588183	22.4958	0.236224	9.15561	0.455247	17.3149	0.721256	26.7075
0.197118	7.16902	0.0389487	1.60963	0.328636	11.8472	0.466874	16.7309	0.590225	21.7972	0.238143	9.11247	0.457702	16.8125	0.722797	25.872
0.203118	7.14512	0.040506	1.62744	0.331667	11.568	0.46932	16.2752	0.59233	21.1472	0.239375	9.08556	0.460225	16.3458	0.724385	25.092
0.20903	7.11972	0.0423367	1.64726	0.33478	11.309	0.471874	15.8516	0.594495	20.5413	0.24115	9.0478	0.462814	15.9112	0.72602	24.3624
0.214847	7.09277	0.0444419	1.66868	0.337974	11.0686	0.474536	15.4572	0.596722	19.9752	0.243085	9.00796	0.465468	15.5058	0.727701	23.6785
0.220563	7.06419	0.0465507	1.68878	0.341253	10.845	0.477306	15.0895	0.599007	19.4452	0.245727	8.95568	0.468186	15.1268	0.729428	23.0364
0.226171	7.03391	0.0486622	1.70766	0.344619	10.6371	0.480186	14.7462	0.601352	18.9482	0.249084	8.89252	0.470965	14.772	0.731201	22.4323
0.231665	7.00189	0.0507759	1.72542	0.348076	10.4434	0.483177	14.4253	0.603755	18.4814	0.253164	8.82027	0.473805	14.4391	0.733019	21.8631
0.237038	6.96806	0.052891	1.74214	0.351627	10.2631	0.486278	14.125	0.606215	18.0421	0.257979	8.74076	0.476704	14.1263	0.734882	21.3261
0.242283	6.9324	0.0550071	1.7579	0.355276	10.0951	0.489489	13.8436	0.608732	17.6282	0.263538	8.65586	0.47966	13.8321	0.736789	20.8185
0.247395	6.89487	0.0571238	1.77276	0.359025	9.93848	0.49281	13.5797	0.611304	17.2376	0.269129	8.57703	0.482674	13.5548	0.738739	20.3382
0.252368	6.85545	0.0592407	1.78679	0.362878	9.79258	0.496241	13.332	0.613931	16.8685	0.274749	8.50364	0.485742	13.2931	0.740733	19.8831
0.257197	6.81416	0.0613576	1.80005	0.366323	9.6736	0.49978	13.0992	0.616613	16.5193	0.280394	8.43512	0.488864	13.0459	0.742769	19.4513
0.261877	6.77101	0.0634743	1.81261	0.369325	9.57783	0.503428	12.8803	0.619348	16.1885	0.286061	8.37099	0.492039	12.8121	0.744848	19.0412
0.266404	6.72604	0.0655906	1.8245	0.371854	9.50236	0.507182	12.6742	0.622136	15.8748	0.291748	8.3108	0.495266	12.5907	0.746969	18.6511
0.270777	6.67933	0.0677063	1.83577	0.373883	9.44499	0.511042	12.4801	0.624976	15.577	0.29745	8.25416	0.498542	12.3807	0.749131	18.2799
0.274994	6.63094	0.0698213	1.84647	0.375392	9.40406	0.515006	12.2971	0.627867	15.2939	0.303165	8.20074	0.501868	12.1815	0.751333	17.9261
0.279053	6.58098	0.0719355	1.85664	0.376365	9.37841	0.519071	12.1244	0.630809	15.0245	0.308891	8.15023	0.505242	11.9922	0.753577	17.5886
0.282957	6.52958	0.0740489	1.86631	0.377774	9.34226	0.523238	11.9614	0.633801	14.7681	0.314625	8.10233	0.508663	11.8122	0.75586	17.2664
0.286707	6.47685	0.0761615	1.87551	0.37932	9.30392	0.527502	11.8074	0.636842	14.5237	0.320364	8.05682	0.512131	11.6408	0.758183	16.9586
0.290305	6.42295	0.0782732	1.88428	0.381445	9.25333	0.531863	11.6618	0.639933	14.2905	0.326106	8.01346	0.515643	11.4776	0.760546	16.6641
0.293756	6.36803	0.0803839	1.89264	0.38417	9.19183	0.536317	11.5241	0.643071	14.0679	0.331849	7.97205	0.5192	11.322	0.762947	16.3823
0.297063	6.31224	0.0824938	1.90063	0.387522	9.12099	0.540863	11.3937	0.646258	13.8552	0.337589	7.93241	0.5228	11.1735	0.765386	16.1124
0.300233	6.25575	0.0846026	1.90825	0.391532	9.04257	0.545498	11.2701	0.649491	13.6518	0.343325	7.89436	0.526443	11.0317	0.767863	15.8536
0.303271	6.19871	0.0867105	1.91554	0.396235	8.95841	0.55022	11.153	0.652771	13.4572	0.349055	7.85777	0.530128	10.8961	0.770378	15.6053
0.306183	6.14128	0.0888176	1.92252	0.401043	8.88006	0.555026	11.0419	0.656098	13.2709	0.354776	7.82249	0.533855	10.7666	0.772929	15.367
0.308975	6.0836	0.0909237	1.9292	0.405953	8.80708	0.559913	10.9364	0.65947	13.0924	0.360485	7.78839	0.537623	10.6426	0.775518	15.138
0.311654	6.0258	0.0930289	1.9356	0.410959	8.73905	0.564879	10.8362	0.662888	12.9212	0.366182	7.75536	0.541431	10.5239	0.778143	14.9179
0.314226	5.96803	0.0951334	1.94175	0.416057	8.67558	0.569921	10.7409	0.666351	12.7571	0.371864	7.72329	0.545278	10.4101	0.780804	14.7063
0.316698	5.91039	0.0972369	1.94765	0.421242	8.61629	0.575037	10.6503	0.669859	12.5995	0.377528	7.69208	0.549166	10.3011	0.7835	14.5026
0.319076	5.853	0.0993397	1.95331	0.426507	8.56084	0.580223	10.5641	0.673411	12.4482	0.383172	7.66164	0.553092	10.1966	0.786232	14.3064
0.321366	5.79595	0.101442	1.95876	0.431847	8.5089	0.585477	10.482	0.677008	12.3028	0.388795	7.63189	0.557058	10.0962	0.788999	14.1174
0.323574	5.73933	0.103543	1.964	0.437255	8.46015	0.590796	10.4036	0.680649	12.163	0.394393	7.60274	0.560545	10.0121	0.7918	13.9352
0.325705	5.68321	0.105643	1.96904	0.442726	8.41431	0.596178	10.329	0.684335	12.0286	0.399966	7.57413	0.563541	9.94272	0.794636	13.7595
0.327765	5.62766	0.107743	1.9739	0.448253	8.37113	0.601619	10.2576	0.688065	11.8993	0.405511	7.546	0.566034	9.88687	0.797506	13.59
0.329758	5.57274	0.109842	1.97858	0.453831	8.33036	0.607117	10.1895	0.69184	11.7748	0.411025	7.51827	0.568015	9.84368	0.800409	13.4263
0.33169	5.51849	0.11194	1.9831	0.459455	8.29178	0.612668	10.1244	0.695659	11.655	0.416508	7.49088	0.569478	9.81244	0.803346	13.2682
0.333565	5.46497	0.114038	1.98746	0.465118	8.25519	0.617548	10.0699	0.699523	11.5396	0.421955	7.46379	0.570417	9.79269	0.806316	13.1154
0.335386	5.4122	0.116135	1.99166	0.470817	8.2204	0.621737	10.0251	0.703432	11.4285	0.427366	7.43694	0.57177	9.7646	0.809319	12.9677
0.337158	5.36021	0.118232	1.99573	0.476546	8.18724	0.62522	9.98905	0.707387	11.3214	0.432739	7.41029	0.573246	9.73448	0.812355	12.8249
0.338885	5.30902	0.120328	1.99966	0.4823	8.15556	0.627986	9.96122	0.711388	11.2181	0.438071	7.38379	0.57526	9.69419	0.815423	12.6868
0.340569	5.25865	0.122423	2.00346	0.488077	8.12522	0.630026	9.94111	0.715435	11.1186	0.44336	7.3574	0.57782	9.64432	0.818523	12.553
0.342215	5.20912	0.124518	2.00714	0.49387	8.0961	0.631335	9.9284	0.719531	11.0226	0.448605	7.33108	0.580936	9.58559	0.821655	12.4235
0.343824	5.16042	0.126612	2.01071	0.499678	8.06808	0.633219	9.91033	0.723674	10.9301	0.453802	7.30481	0.584618	9.51882	0.824819	12.2981
0.345399	5.11258	0.128706	2.01416	0.505496	8.04106	0.635273	9.89096	0.727868	10.8409	0.458951	7.27853	0.588878	9.44491	0.828014	12.1766
0.346944	5.06559	0.1308	2.0175	0.511321	8.01493	0.638074	9.86506	0.732112	10.7549	0.46405	7.25223	0.593177	9.37379	0.831241	12.0589
0.34846	5.01944	0.132893	2.02075	0.517151	7.98963	0.641629	9.83302	0.736408	10.6719	0.469096	7.22588	0.597515	9.30532	0.834499	11.9447
0.34995	4.97414	0.134985	2.02389	0.522982	7.96507	0.645946	9.79528	0.740757	10.5919	0.474089	7.19946	0.60189	9.2394	0.837787	11.8339
0.351415	4.92969	0.137077	2.02694	0.528812	7.94117	0.651034	9.75236	0.745161	10.5148	0.479025	7.17293	0.606304	9.17593	0.841107	11.7265
0.352858	4.88607	0.139169	2.02991	0.534638	7.91788	0.6569	9.7048	0.749622	10.4405	0.483904	7.14629	0.610756	9.11478	0.844456	11.6222
0.354281	4.84328	0.14126	2.03279	0.540459	7.89514	0.662794	9.65892	0.753557	10.378	0.488724	7.11952	0.615247	9.05588	0.847836	11.521
0.355684	4.80131	0.143351	2.03559	0.546271	7.8729	0.668712	9.61461	0.756948	10.3262	0.493484	7.09259	0.619776	8.99913	0.851246	11.4227
0.35707	4.76015	0.145442	2.03831	0.552073	7.85109	0.67465	9.57177	0.759778	10.2845	0.498182	7.06551	0.624343	8.94444	0.854686	11.3273
0.358439	4.71978	0.147532	2.04095	0.557863	7.8297	0.680604	9.53027	0.762033	10.2522	0.502818	7.03824	0.628947	8.89173	0.858155	11.2345
0.359794	4.68021	0.149622	2.04353	0.56364	7.80866	0.686572	9.49003	0.7637	10.2289	0.507389	7.0108	0.63359	8.84091	0.861654	11.1444
0.361135	4.6414	0.151712	2.04603	0.569401	7.78795	0.692549	9.45094	0.764771	10.2141	0.511896	6.98318	0.63827	8.79191	0.865182	11.0568
0.362294	4.60821	0.153801	2.04847	0.575145	7.76753	0.698532	9.4129	0.766318	10.1931	0.516337	6.95536	0.642987	8.74465	0.868738	10.9716
0.363275	4.58037	0.15589	2.05085	0.58087	7.74737	0.704517	9.37583	0.768007	10.1705	0.520712	6.92735	0.64774	8.69907	0.872324	10.8888
0.364082	4.55765	0.157979	2.05316	0.586575	7.72744	0.710499	9.33963	0.770318	10.1404	0.52502	6.89916	0.652529	8.6551	0.875938	10.8082
0.364717	4.53988	0.160068	2.05541	0.592259	7.70771	0.716474	9.30423	0.773264	10.103	0.529261	6.87077	0.657354	8.61265	0.87958	10.7298
0.365183	4.52693	0.162156	2.05761	0.597921	7.68817	0.722439	9.26955	0.776861	10.0591	0.533435	6.84219	0.662213	8.57168	0.882777	10.6632
0.36548	4.51868	0.164244	2.05976	0.603558	7.66879	0.72839	9.2355	0.781133	10.0092	0.537541	6.81343	0.667106	8.53212	0.885519	10.6076
0.365907	4.5069	0.166332	2.06185	0.60917	7.64954	0.734323	9.20202	0.786105	9.95403	0.54158	6.7845	0.672032	8.49391	0.887798	10.5625
0.366369	4.49418	0.168419	2.06389	0.614756	7.63041	0.740234	9.16904	0.791153	9.90115	0.545551	6.7554	0.67699	8.45699	0.889608	10.5273
0.366997	4.47703	0.170507	2.06588	0.620315	7.61138	0.74612	9.1365	0.796281	9.85047	0.549455	6.72615	0.681979	8.4213	0.890942	10.5018
0.367788	4.45557	0.172594	2.06783	0.625845	7.59244	0.751977	9.10435	0.801491	9.80194	0.553292	6.69674	0.686998	8.38678	0.891798	10.4855
0.36874	4.42996	0.174681	2.06973	0.631345	7.57356	0.757803	9.07254	0.806784	9.75551	0.557063	6.6672	0.692045	8.35339	0.893031	10.4624
0.369853	4.40041	0.176767	2.07158	0.636815	7.55474	0.763594	9.04103	0.812162	9.71114	0.560769	6.63754	0.69712	8.32106	0.894374	10.4374
0.371124	4.36712	0.178854	2.07339	0.642253	7.53596	0.76935	9.00979	0.817626	9.66876	0.564409	6.60776	0.702221	8.28976	0.896207	10.4039
0.372389	4.33449	0.18094	2.07517	0.647658	7.51721	0.775068	8.97878	0.823178	9.62834	0.567985	6.57787	0.707346	8.25942	0.898534	10.362
0.37365	4.3025	0.183026	2.0769	0.65303	7.49847	0.780747	8.948	0.828818	9.58979	0.571498	6.5479	0.712495	8.23001	0.901361	10.3123
0.374905	4.27114	0.185112	2.07859	0.658368	7.47974	0.786387	8.91742	0.834545	9.55308	0.574949	6.51786	0.717666	8.20148	0.904696	10.2552
0.376158	4.24039	0.187198	2.08025	0.663671	7.46101	0.791989	8.88704	0.840359	9.51812	0.578337	6.48775	0.722858	8.17377	0.908548	10.1913
0.377406	4.21025	0.189284	2.08187	0.668938	7.44227	0.797552	8.85687	0.846259	9.48486	0.581666	6.4576	0.728068	8.14686	0.912427	10.1289
0.378652	4.18069	0.191369	2.08346	0.674168	7.42351	0.803077	8.8269	0.852244	9.45322	0.584935	6.42741	0.733296	8.1207	0.916331	10.0681
0.379896	4.15172	0.193455	2.08501	0.67936	7.40471	0.808567	8.79715	0.85831	9.42313	0.588146	6.3972	0.73854	8.09524	0.920261	10.0088
0.381138	4.1233	0.19554	2.08653	0.684514	7.38588	0.814022	8.76763	0.864457	9.39451	0.591299	6.36698	0.743798	8.07046	0.924216	9.95101
0.382378	4.09544	0.197625	2.08802	0.689629	7.36701	0.819445	8.73835	0.87068	9.3673	0.594397	6.33676	0.749069	8.04631	0.928196	9.89461
0.383617	4.06812	0.19971	2.08948	0.694704	7.3481	0.824839	8.70934	0.876978	9.34141	0.59744	6.30656	0.754352	8.02277	0.932201	9.83957
0.384855	4.04132	0.201794	2.09091	0.699739	7.32912	0.830205	8.6806	0.883346	9.31679	0.60043	6.27639	0.759644	7.99978	0.936231	9.78587
0.386093	4.01504	0.203879	2.09231	0.704733	7.31009	0.835546	8.65216	0.889782	9.29334	0.603367	6.24626	0.764945	7.97734	0.940284	9.73345
0.387331	3.98926	0.205963	2.09369	0.709685	7.291	0.840864	8.62403	0.896281	9.27101	0.606253	6.21618	0.770253	7.95539	0.944362	9.68229
0.388569	3.96397	0.208048	2.09503	0.714596	7.27185	0.846163	8.59623	0.902842	9.24973	0.60909	6.18617	0.775566	7.93392	0.948464	9.63233
0.389807	3.93917	0.210132	2.09635	0.719463	7.25262	0.851444	8.56878	0.909459	9.22943	0.611877	6.15623	0.780883	7.9129	0.952589	9.58354
0.391047	3.91483	0.212216	2.09765	0.724288	7.23332	0.856709	8.54168	0.916131	9.21005	0.614618	6.12637	0.786203	7.89229	0.956737	9.53589
0.392287	3.89095	0.2143	2.09892	0.72907	7.21395	0.861962	8.51495	0.922853	9.19154	0.617312	6.09661	0.791524	7.87208	0.960909	9.48935
0.393528	3.86753	0.216384	2.10016	0.733808	7.1945	0.867203	8.4886	0.929623	9.17383	0.619961	6.06695	0.796845	7.85224	0.965103	9.44387
0.394771	3.84454	0.218468	2.10138	0.738501	7.17498	0.872435	8.46263	0.936437	9.15689	0.622567	6.0374	0.802164	7.83274	0.969319	9.39944
0.396016	3.82198	0.220551	2.10258	0.743151	7.15538	0.877659	8.43706	0.943293	9.14065	0.62513	6.00797	0.80748	7.81357	0.973558	9.35602
0.397262	3.79984	0.222635	2.10376	0.747755	7.1357	0.882877	8.41188	0.950188	9.12508	0.627651	5.97867	0.812792	7.7947	0.977819	9.31357
0.39851	3.77811	0.224718	2.10492	0.752315	7.11595	0.888091	8.3871	0.957119	9.11013	0.630132	5.9495	0.818099	7.77611	0.982102	9.27208
0.399761	3.75678	0.226802	2.10605	0.75683	7.09612	0.893301	8.36272	0.964084	9.09576	0.632574	5.92048	0.823398	7.75778	0.986406	9.23151
0.401014	3.73585	0.228885	2.10717	0.761299	7.07621	0.898509	8.33874	0.971081	9.08194	0.634978	5.8916	0.82869	7.7397	0.990731	9.19184
0.402269	3.71529	0.230968	2.10826	0.765724	7.05623	0.903715	8.31516	0.978107	9.06863	0.637345	5.86288	0.833973	7.72184	0.995077	9.15305
0.403527	3.69511	0.233051	2.10934	0.770103	7.03617	0.90892	8.29197	0.985159	9.0558	0.639676	5.83432	0.839245	7.70419	0.999445	9.1151
0.404788	3.6753	0.235134	2.11039	0.774437	7.01604	0.914126	8.26917	0.992238	9.04341	0.641972	5.80592	0.844506	7.68674	1.00383	9.07798
0.406051	3.65585	0.237217	2.11143	0.778725	6.99584	0.919332	8.24676	0.999339	9.03144	0.644235	5.7777	0.849754	7.66947		
0.407317	3.63674	0.2393	2.11245	0.782969	6.97558	0.924538	8.22473	1.00646	9.01986	0.646464	5.74965	0.854988	7.65237		
0.408587	3.61798	0.241383	2.11345	0.787167	6.95525	0.929746	8.20307			0.648662	5.72178	0.860208	7.63542		
0.40986	3.59955	0.243465	2.11444	0.79132	6.93486	0.934956	8.18177			0.650828	5.6941	0.865412	7.6186		
0.411135	3.58145	0.245548	2.11541	0.795429	6.91441	0.940166	8.16084			0.652965	5.6666	0.8706	7.60192		
0.412415	3.56367	0.24763	2.11636	0.799493	6.8939	0.945379	8.14025			0.655072	5.63929	0.875769	7.58535		
0.413697	3.54621	0.249713	2.1173	0.803512	6.87334	0.950593	8.12			0.657152	5.61218	0.88092	7.56889		
0.414984	3.52905	0.251795	2.11822	0.807488	6.85274	0.955808	8.10009			0.659204	5.58526	0.886052	7.55252		
0.416273	3.51219	0.253877	2.11913	0.81142	6.83208	0.961025	8.08049			0.661229	5.55855	0.891163	7.53623		
0.417567	3.49562	0.25596	2.12003	0.815308	6.81139	0.966242	8.06121			0.663229	5.53203	0.896253	7.52003		
0.418864	3.47934	0.258042	2.1209	0.819153	6.79065	0.97146	8.04223			0.665204	5.50571	0.901321	7.50389		
0.420164	3.46334	0.260124	2.12177	0.822955	6.76989	0.976679	8.02355			0.667154	5.4796	0.906366	7.48781		
0.421469	3.44762	0.262206	2.12262	0.826715	6.74909	0.981897	8.00515			0.669082	5.4537	0.911388	7.47179		
0.422777	3.43217	0.264288	2.12346	0.830433	6.72826	0.987115	7.98702			0.670986	5.428	0.916385	7.45581		
0.424089	3.41697	0.26637	2.12428	0.834109	6.70741	0.992332	7.96916			0.672869	5.40252	0.921357	7.43986		
0.425406	3.40204	0.268452	2.1251	0.837744	6.68655	0.997548	7.95155			0.674731	5.37724	0.926304	7.42395		
0.426726	3.38736	0.270533	2.1259	0.841338	6.66566	1.00276	7.93418			0.676572	5.35217	0.931225	7.40807		
0.42805	3.37292	0.272615	2.12669	0.844891	6.64477					0.678393	5.32731	0.936118	7.39221		
0.429378	3.35873	0.274697	2.12746	0.848405	6.62387					0.680195	5.30267	0.940984	7.37637		
0.43071	3.34477	0.276778	2.12823	0.851879	6.60296					0.681979	5.27823	0.945822	7.36054		
0.432046	3.33104	0.27886	2.12898	0.855314	6.58205					0.683744	5.25401	0.950632	7.34471		
0.433386	3.31755	0.280941	2.12972	0.858711	6.56115					0.685492	5.23	0.955413	7.32889		
0.43473	3.30427	0.283023	2.13045	0.86207	6.54025					0.687223	5.2062	0.960164	7.31308		
0.436078	3.29121	0.285104	2.13118	0.865391	6.51937					0.688938	5.18261	0.964886	7.29726		
0.437431	3.27836	0.287186	2.13189	0.868675	6.49849					0.690637	5.15923	0.969578	7.28143		
0.438787	3.26573	0.289267	2.13259	0.871922	6.47764					0.692321	5.13606	0.974239	7.2656		
0.440148	3.25329	0.291348	2.13328	0.875133	6.4568					0.69399	5.1131	0.978869	7.24975		
0.441513	3.24106	0.293429	2.13396	0.878309	6.43599					0.695645	5.09035	0.983468	7.2339		
0.442881	3.22903	0.295511	2.13463	0.88145	6.41521					0.697286	5.06781	0.988036	7.21803		
