Sym0		Asym0		Sym1		Sym2		Sym3		Asym1		Asym2		Asym3	
470  Points		492  Points		203  Points		144  Points		128  Points		368  Points		159  Points		127  Points	
Freq (MHz)	Vgr (m/ms)	Freq (MHz)	Vgr (m/ms)	Freq (MHz)	Vgr (m/ms)	Freq (MHz)	Vgr (m/ms)	Freq (MHz)	Vgr (m/ms)	Freq (MHz)	Vgr (m/ms)	Freq (MHz)	Vgr (m/ms)	Freq (MHz)	Vgr (m/ms)
0.00504201	7.31145	0.000505661	0.552213	0.27953	0.141743	0.431508	0.0844165	0.559046	0.109789	0.139855	0.468963	0.419263	0.0605811	0.698771	0.0310387
0.011854	7.31023	0.00102015	0.6432	0.279662	0.206593	0.431587	0.116908	0.559148	0.149408	0.140291	0.652711	0.41932	0.109942	0.6988	0.0592608
0.0186638	7.30708	0.00170419	0.820285	0.279915	0.33596	0.431726	0.182082	0.559324	0.228566	0.141071	1.01638	0.419468	0.208514	0.698882	0.115729
0.02547	7.30246	0.00254867	0.986811	0.280288	0.464615	0.431926	0.247684	0.559574	0.307561	0.142185	1.37077	0.419708	0.306855	0.699016	0.172195
0.0322712	7.29638	0.00354301	1.14159	0.28078	0.592286	0.432188	0.313775	0.559897	0.386377	0.143625	1.7132	0.42004	0.404951	0.699203	0.228586
0.039066	7.28883	0.00467589	1.28379	0.281391	0.718649	0.432511	0.380479	0.560294	0.465052	0.145378	2.04151	0.420463	0.502706	0.699442	0.284896
0.0458531	7.27974	0.00593521	1.41306	0.282119	0.843494	0.432897	0.44797	0.560764	0.543449	0.147429	2.35404	0.420977	0.600073	0.699733	0.341121
0.052631	7.26911	0.00730898	1.52952	0.282963	0.966622	0.433346	0.516373	0.561307	0.621506	0.149764	2.64979	0.421581	0.696954	0.700077	0.397247
0.0593983	7.25685	0.0087853	1.63352	0.283921	1.08778	0.433859	0.585798	0.561922	0.699251	0.152367	2.92812	0.422275	0.793231	0.700474	0.453248
0.0661533	7.24287	0.0103529	1.72567	0.28499	1.20675	0.434437	0.656385	0.56261	0.776666	0.15522	3.18888	0.423059	0.888813	0.700922	0.509075
0.0728946	7.22714	0.0120009	1.80675	0.286169	1.32334	0.435082	0.728273	0.563369	0.85364	0.158309	3.4323	0.423932	0.983736	0.701422	0.564699
0.0796203	7.2096	0.0137196	1.87774	0.287456	1.43743	0.435794	0.801516	0.5642	0.930169	0.161616	3.65883	0.424892	1.07785	0.701974	0.620208
0.0863289	7.19013	0.0154998	1.93944	0.288848	1.54892	0.436575	0.876225	0.565103	1.00625	0.165127	3.86911	0.42594	1.17109	0.702578	0.67549
0.0930183	7.16861	0.0173335	1.99281	0.290342	1.65759	0.437427	0.95262	0.566075	1.0818	0.168826	4.06392	0.427075	1.26346	0.703233	0.730535
0.0996868	7.14499	0.0192132	2.03878	0.291937	1.76343	0.438351	1.0307	0.567118	1.15681	0.172699	4.24414	0.428294	1.35481	0.703939	0.785402
0.106332	7.11906	0.0211325	2.07819	0.293628	1.86643	0.439348	1.11055	0.568231	1.23123	0.176734	4.41063	0.429599	1.44507	0.704696	0.839983
0.112952	7.09072	0.0230857	2.11182	0.295414	1.96653	0.44042	1.19232	0.569413	1.30507	0.180918	4.56433	0.430987	1.53427	0.705504	0.894288
0.119545	7.0598	0.0250677	2.14042	0.297293	2.06381	0.441569	1.27602	0.570663	1.37827	0.185239	4.70612	0.432458	1.62236	0.706363	0.948333
0.126108	7.02617	0.0270742	2.16466	0.29926	2.15826	0.442798	1.36176	0.571981	1.45085	0.189688	4.83686	0.43401	1.70925	0.707272	1.00208
0.132637	6.98966	0.0291013	2.18507	0.301314	2.24997	0.444107	1.4496	0.573366	1.52276	0.194252	4.95725	0.435643	1.79486	0.70823	1.05551
0.139132	6.94998	0.030882	2.20028	0.303453	2.33919	0.445499	1.5395	0.574818	1.59392	0.198925	5.06812	0.437355	1.8792	0.709238	1.10862
0.145588	6.90694	0.032409	2.21147	0.305673	2.42601	0.446976	1.63149	0.576336	1.6644	0.203696	5.17017	0.439145	1.96226	0.710296	1.16137
0.152002	6.86035	0.0336771	2.21956	0.307973	2.51065	0.448539	1.72567	0.57792	1.73416	0.208559	5.26405	0.441011	2.04393	0.711402	1.21377
0.158372	6.80993	0.0346829	2.22544	0.310351	2.59344	0.450191	1.82198	0.579568	1.80314	0.213505	5.35036	0.442953	2.12422	0.712558	1.26583
0.164692	6.75538	0.0354241	2.22935	0.312806	2.67465	0.451934	1.92032	0.58128	1.87139	0.218529	5.42974	0.44497	2.20314	0.713761	1.31751
0.170959	6.69645	0.0358991	2.23165	0.315335	2.75466	0.453769	2.0207	0.583055	1.93888	0.222964	5.49369	0.447059	2.28063	0.715013	1.36881
0.17717	6.63287	0.0365828	2.23483	0.317939	2.83382	0.455699	2.12309	0.584893	2.00554	0.226784	5.54442	0.449219	2.35665	0.716312	1.41969
0.183319	6.56423	0.037327	2.2381	0.320616	2.91261	0.457726	2.22731	0.586792	2.0714	0.229969	5.58401	0.45145	2.43127	0.717658	1.47018
0.189402	6.49029	0.0383408	2.24224	0.323366	2.99145	0.45985	2.33329	0.588753	2.13653	0.232503	5.61378	0.45375	2.50441	0.719051	1.52026
0.195413	6.41076	0.0396255	2.24677	0.32619	3.07083	0.462073	2.44094	0.590773	2.20081	0.234375	5.63485	0.456117	2.57607	0.720491	1.56988
0.201347	6.32523	0.0411823	2.25154	0.329088	3.15131	0.464398	2.55005	0.592854	2.26426	0.235576	5.6479	0.45855	2.64628	0.721977	1.61909
0.207199	6.2335	0.0430125	2.2563	0.332062	3.23337	0.466825	2.66045	0.594993	2.32693	0.237308	5.66623	0.461048	2.71501	0.723508	1.66786
0.212963	6.13529	0.0451169	2.2607	0.335113	3.31745	0.469356	2.77198	0.59719	2.38875	0.239197	5.68554	0.463609	2.7823	0.725085	1.71617
0.218632	6.03034	0.047225	2.26418	0.338244	3.40408	0.47199	2.88443	0.599444	2.44978	0.241775	5.71056	0.466232	2.8481	0.726706	1.76402
0.2242	5.91859	0.049336	2.2668	0.341457	3.49369	0.47473	2.99758	0.601754	2.51003	0.245053	5.74082	0.468916	2.91246	0.728372	1.81145
0.22966	5.79998	0.051449	2.26877	0.344754	3.58658	0.477576	3.11122	0.604121	2.56945	0.249038	5.77506	0.471659	2.97542	0.730081	1.85842
0.235007	5.67445	0.0535636	2.27016	0.34814	3.68306	0.480528	3.22512	0.606542	2.62807	0.253743	5.81212	0.47446	3.03695	0.731835	1.90488
0.240234	5.54219	0.0556792	2.27107	0.351617	3.78331	0.483586	3.33903	0.609018	2.6859	0.259177	5.8509	0.477318	3.0971	0.733631	1.95087
0.245335	5.40349	0.0577955	2.2716	0.355189	3.88735	0.48675	3.45275	0.611547	2.74292	0.264645	5.88582	0.480232	3.15587	0.73547	1.99641
0.250303	5.25882	0.059912	2.2718	0.358861	3.99493	0.49002	3.566	0.614129	2.79916	0.270144	5.91701	0.483199	3.21336	0.737351	2.04149
0.255134	5.10878	0.0620287	2.27171	0.362143	4.09136	0.493395	3.67853	0.616763	2.85465	0.275671	5.94469	0.486219	3.26952	0.739274	2.08609
0.259823	4.954	0.0641451	2.27141	0.365003	4.17548	0.496874	3.79021	0.619448	2.90938	0.281222	5.96908	0.489291	3.32436	0.741238	2.13019
0.264365	4.79541	0.0662612	2.27097	0.367413	4.24616	0.500457	3.90077	0.622184	2.96341	0.286794	5.99024	0.492414	3.37799	0.743243	2.17384
0.268758	4.63408	0.0683768	2.27038	0.369347	4.30268	0.504143	4.00999	0.62497	3.01667	0.292384	6.00833	0.495586	3.43048	0.745289	2.21706
0.273	4.47101	0.0704918	2.26965	0.370786	4.3444	0.507929	4.11769	0.627806	3.06922	0.297989	6.02353	0.498806	3.48177	0.747374	2.25977
0.27709	4.30733	0.0726061	2.26884	0.371714	4.37128	0.511816	4.22374	0.63069	3.12107	0.303608	6.03593	0.502074	3.53198	0.7495	2.30204
0.281026	4.14425	0.0747196	2.268	0.373058	4.41021	0.5158	4.32795	0.633621	3.17226	0.309237	6.04564	0.505388	3.58113	0.751664	2.34382
0.284812	3.98289	0.0768322	2.26706	0.374533	4.45248	0.51988	4.43016	0.636601	3.22285	0.314873	6.05269	0.508747	3.62925	0.753867	2.38519
0.288448	3.82431	0.078944	2.26612	0.376561	4.51017	0.524055	4.53029	0.639627	3.27277	0.320515	6.05725	0.51215	3.67644	0.756109	2.42611
0.291938	3.66952	0.0810549	2.26514	0.379163	4.58326	0.528322	4.62816	0.642699	3.32207	0.32616	6.0593	0.515597	3.72268	0.758388	2.46656
0.295286	3.51931	0.0831648	2.26417	0.382366	4.67142	0.532679	4.7237	0.645817	3.37086	0.331806	6.05894	0.519087	3.76807	0.760705	2.50661
0.298496	3.37439	0.0852739	2.26321	0.3862	4.77419	0.537124	4.81685	0.64898	3.41908	0.33745	6.05623	0.522619	3.81271	0.763059	2.54619
0.301574	3.23535	0.087382	2.26221	0.390703	4.89039	0.541655	4.9075	0.652188	3.46674	0.343091	6.05121	0.526192	3.85665	0.765449	2.58543
0.304525	3.10259	0.0894893	2.26124	0.395313	5.004	0.546269	4.99564	0.65544	3.51394	0.348726	6.04391	0.529805	3.89985	0.767876	2.62422
0.307355	2.97644	0.0915956	2.26032	0.400027	5.11406	0.550964	5.08125	0.658736	3.56074	0.354353	6.03432	0.533459	3.94246	0.770339	2.66261
0.310071	2.857	0.0937011	2.25938	0.404843	5.21981	0.555737	5.16421	0.662075	3.60709	0.359971	6.02254	0.537152	3.98453	0.772838	2.70066
0.312679	2.74425	0.0958057	2.25847	0.409754	5.32069	0.560587	5.24451	0.665458	3.65306	0.365576	6.00851	0.540883	4.02606	0.775372	2.73829
0.315185	2.6382	0.0979096	2.25761	0.414757	5.41607	0.56551	5.3222	0.668882	3.69879	0.371167	5.99231	0.544654	4.06721	0.77794	2.77555
0.317595	2.53875	0.100013	2.25674	0.419846	5.50558	0.570504	5.39716	0.67235	3.74417	0.376742	5.97392	0.548462	4.10798	0.780544	2.8125
0.319915	2.44561	0.102115	2.25591	0.425016	5.58897	0.575567	5.46944	0.675859	3.78931	0.382298	5.95337	0.552308	4.14844	0.783181	2.84911
0.322152	2.35866	0.104216	2.25508	0.430261	5.66608	0.580696	5.53907	0.679411	3.83433	0.387835	5.93064	0.555691	4.18348	0.785853	2.88534
0.32431	2.27755	0.106317	2.25431	0.435574	5.73693	0.585888	5.60589	0.683004	3.87917	0.39335	5.90577	0.558597	4.21325	0.788558	2.92126
0.326396	2.20197	0.108417	2.25355	0.440951	5.80154	0.591142	5.67004	0.686639	3.92396	0.39884	5.87872	0.561015	4.23779	0.791296	2.95692
0.328413	2.13175	0.110516	2.25281	0.446385	5.86	0.596454	5.73161	0.690316	3.96878	0.404304	5.84944	0.562937	4.25711	0.794068	2.99227
0.330368	2.06646	0.112615	2.25211	0.45187	5.91244	0.601128	5.78303	0.694035	4.01368	0.40974	5.81807	0.564356	4.27124	0.796872	3.02731
0.332264	2.00582	0.114713	2.25146	0.457402	5.95925	0.605146	5.82519	0.697795	4.05871	0.415145	5.78455	0.565267	4.28033	0.799709	3.06208
0.334106	1.94958	0.11681	2.25081	0.462975	6.00059	0.608489	5.85888	0.701598	4.10396	0.420519	5.74886	0.566579	4.29355	0.802578	3.09661
0.335897	1.89744	0.118907	2.25016	0.468583	6.03672	0.611147	5.8848	0.705442	4.14949	0.425858	5.71105	0.56801	4.30775	0.805479	3.13088
0.337641	1.84914	0.121003	2.24954	0.474223	6.06797	0.613108	5.90352	0.70933	4.19543	0.43116	5.67109	0.569964	4.32693	0.808412	3.16485
0.339343	1.80438	0.123099	2.24897	0.47989	6.09454	0.614367	5.91525	0.71326	4.2419	0.436425	5.62899	0.572447	4.35128	0.811376	3.19867
0.341004	1.76298	0.125194	2.24843	0.48558	6.1168	0.61618	5.93189	0.717234	4.28892	0.441649	5.58484	0.575469	4.38071	0.814372	3.23224
0.342628	1.72465	0.127288	2.24787	0.491288	6.13503	0.618157	5.94959	0.721252	4.33666	0.446832	5.53863	0.57904	4.41532	0.817399	3.26554
0.344217	1.68922	0.129382	2.24737	0.497012	6.14946	0.620854	5.97296	0.725315	4.38521	0.45197	5.49036	0.583172	4.455	0.820457	3.29867
0.345775	1.65651	0.131476	2.2469	0.502747	6.1603	0.624281	6.00167	0.729423	4.43468	0.457062	5.44012	0.587341	4.49472	0.823546	3.33161
0.347304	1.62625	0.133569	2.24637	0.508491	6.16784	0.628447	6.03491	0.733578	4.48523	0.462107	5.38793	0.591547	4.53451	0.826665	3.3643
0.348806	1.59832	0.135662	2.24592	0.51424	6.17227	0.633362	6.07194	0.737781	4.53695	0.467102	5.33383	0.595791	4.57436	0.829815	3.39681
0.350282	1.57257	0.137754	2.24551	0.519992	6.17383	0.639039	6.11179	0.742033	4.58999	0.472046	5.27791	0.600071	4.61424	0.832995	3.42916
0.351736	1.54882	0.139846	2.24506	0.525744	6.1727	0.644751	6.14875	0.745778	4.63732	0.476937	5.22026	0.604389	4.65418	0.836205	3.46127
0.353168	1.52697	0.141938	2.24464	0.531494	6.16899	0.650496	6.18268	0.749002	4.67866	0.481774	5.16093	0.608744	4.69418	0.839444	3.49319
0.354581	1.50684	0.144029	2.24425	0.53724	6.16292	0.656272	6.21356	0.751689	4.71353	0.486554	5.10006	0.613136	4.7341	0.842714	3.52494
0.355976	1.48833	0.14612	2.24387	0.542978	6.15465	0.662074	6.24134	0.753829	4.74162	0.491277	5.03773	0.617565	4.77398	0.846013	3.55652
0.357355	1.47131	0.14821	2.24354	0.548708	6.14433	0.667902	6.26589	0.75541	4.76246	0.495941	4.97397	0.622032	4.81385	0.849341	3.58788
0.358718	1.45574	0.1503	2.24319	0.554428	6.13202	0.67375	6.28717	0.756426	4.77594	0.500545	4.90898	0.626535	4.85348	0.852698	3.61903
0.360067	1.4415	0.15239	2.24283	0.560135	6.11782	0.679617	6.30514	0.757891	4.79557	0.505089	4.84291	0.631076	4.89289	0.856085	3.64999
0.361233	1.43	0.154479	2.2425	0.565827	6.10192	0.685499	6.31962	0.75949	4.81718	0.50957	4.77578	0.635653	4.93208	0.8595	3.68078
0.362219	1.42097	0.156569	2.24219	0.571505	6.08438	0.691393	6.33055	0.761677	4.84699	0.513988	4.70783	0.640266	4.97086	0.862943	3.71137
0.36303	1.41389	0.158657	2.24189	0.577165	6.06517	0.697295	6.33789	0.764462	4.88531	0.518342	4.63917	0.644915	5.00922	0.866415	3.74173
0.363669	1.40858	0.160746	2.2416	0.582807	6.04455	0.703203	6.34156	0.767859	4.93282	0.522632	4.56987	0.6496	5.04704	0.869916	3.7719
0.364137	1.40493	0.162834	2.24134	0.588428	6.02251	0.709112	6.34152	0.771887	4.99008	0.526858	4.50014	0.65432	5.08426	0.873444	3.80185
0.364436	1.40262	0.164923	2.24106	0.594029	5.99908	0.71502	6.33766	0.776567	5.05799	0.531018	4.43011	0.659074	5.12078	0.876541	3.82773
0.364865	1.39935	0.16701	2.24078	0.599607	5.97433	0.720922	6.33002	0.781312	5.1282	0.535113	4.35991	0.663862	5.15647	0.879198	3.84971
0.36533	1.39597	0.169098	2.24053	0.605161	5.94833	0.726815	6.31858	0.786123	5.20081	0.539142	4.28969	0.668683	5.19135	0.881407	3.86779
0.365961	1.39157	0.171185	2.24029	0.610691	5.92116	0.732696	6.30337	0.791003	5.27586	0.543106	4.21953	0.673535	5.22526	0.88316	3.88195
0.366756	1.38628	0.173273	2.24006	0.616195	5.89282	0.738561	6.28456	0.795954	5.35322	0.547005	4.14959	0.678419	5.25812	0.884454	3.89253
0.367713	1.38034	0.175359	2.23984	0.621672	5.86334	0.744406	6.2622	0.800978	5.43289	0.550838	4.08005	0.683333	5.28985	0.885283	3.89915
0.368831	1.37392	0.177446	2.23962	0.627121	5.83274	0.75023	6.23655	0.806078	5.51461	0.554607	4.01092	0.688276	5.3204	0.886478	3.90862
0.370108	1.36732	0.179533	2.2394	0.63254	5.80114	0.756027	6.20787	0.811254	5.59821	0.558312	3.94238	0.693247	5.3497	0.887781	3.91902
0.371379	1.36139	0.181619	2.23921	0.63793	5.76857	0.761797	6.17642	0.816509	5.68341	0.561953	3.87449	0.698245	5.37772	0.889557	3.93294
0.372645	1.35615	0.183705	2.23901	0.643289	5.73497	0.767537	6.14261	0.821844	5.76984	0.565532	3.80736	0.703268	5.40433	0.891813	3.95065
0.373906	1.35155	0.185791	2.2388	0.648617	5.7004	0.773243	6.10681	0.827261	5.85715	0.569048	3.7411	0.708315	5.42953	0.894555	3.97183
0.375163	1.34757	0.187877	2.23862	0.653912	5.66496	0.778916	6.06953	0.832759	5.94482	0.572503	3.6757	0.713385	5.45334	0.89779	3.9965
0.376417	1.34412	0.189963	2.23842	0.659173	5.62859	0.784553	6.03127	0.838338	6.03249	0.575897	3.61129	0.718477	5.47561	0.901526	4.02463
0.377668	1.34118	0.192048	2.23825	0.6644	5.59137	0.790155	5.99247	0.843999	6.11965	0.579232	3.54796	0.723589	5.49637	0.905289	4.0525
0.378916	1.3388	0.194133	2.23809	0.669592	5.55335	0.79572	5.95366	0.849742	6.20582	0.582509	3.48575	0.728719	5.51558	0.909078	4.08009
0.380162	1.33683	0.196219	2.23794	0.674748	5.51452	0.801249	5.91529	0.855563	6.29058	0.585728	3.42462	0.733866	5.53324	0.912892	4.1074
0.381407	1.3353	0.198304	2.23779	0.679867	5.47494	0.806742	5.87775	0.861463	6.37343	0.58889	3.36464	0.73903	5.5494	0.916732	4.13446
0.382651	1.33417	0.200388	2.2376	0.68495	5.43456	0.812201	5.84155	0.86744	6.45407	0.591997	3.30591	0.744207	5.56396	0.920596	4.16125
0.383893	1.33342	0.202473	2.23747	0.689994	5.39353	0.817627	5.80694	0.87349	6.53215	0.59505	3.24842	0.749397	5.57695	0.924486	4.18775
0.385135	1.33305	0.204558	2.23734	0.695	5.35182	0.823022	5.77418	0.879611	6.60737	0.59805	3.19217	0.754599	5.58835	0.9284	4.214
0.386377	1.33301	0.206642	2.23716	0.699967	5.30946	0.828387	5.74355	0.885802	6.67959	0.600998	3.13713	0.759811	5.59823	0.932338	4.23998
0.387619	1.33328	0.208726	2.23703	0.704894	5.26657	0.833724	5.71516	0.892058	6.74866	0.603896	3.08339	0.765031	5.60661	0.9363	4.26564
0.388862	1.33386	0.210811	2.23693	0.70978	5.22304	0.839036	5.68914	0.898377	6.81439	0.606744	3.03095	0.770258	5.6134	0.940286	4.29104
0.390105	1.3347	0.212895	2.23681	0.714626	5.17897	0.844325	5.66544	0.904756	6.87681	0.609544	2.97973	0.775491	5.61874	0.944296	4.31618
0.391349	1.33577	0.214979	2.23664	0.719431	5.13445	0.849593	5.6441	0.911191	6.936	0.612296	2.9298	0.780728	5.62258	0.948329	4.3411
0.392594	1.33712	0.217062	2.23651	0.724194	5.08953	0.854842	5.62508	0.91768	6.99185	0.615003	2.88117	0.785968	5.6249	0.952385	4.36568
0.39384	1.33871	0.219146	2.23642	0.728915	5.04417	0.860075	5.60829	0.92422	7.0445	0.617665	2.83375	0.791209	5.62584	0.956464	4.38998
0.395088	1.34049	0.22123	2.23629	0.733593	4.99843	0.865293	5.59363	0.930807	7.09404	0.620284	2.78752	0.796451	5.62536	0.960566	4.41407
0.396338	1.34244	0.223313	2.2362	0.738229	4.95234	0.870498	5.58095	0.937439	7.1406	0.622859	2.74258	0.801691	5.62347	0.964689	4.43787
0.39759	1.34463	0.225397	2.23607	0.742821	4.906	0.875692	5.57011	0.944113	7.18424	0.625394	2.69887	0.80693	5.62022	0.968835	4.46138
0.398844	1.347	0.22748	2.23598	0.74737	4.85943	0.880877	5.56099	0.950826	7.2251	0.627888	2.65629	0.812164	5.61563	0.973003	4.48467
0.4001	1.34951	0.229563	2.23589	0.751876	4.81263	0.886055	5.55342	0.957576	7.26341	0.630344	2.61493	0.817394	5.60974	0.977192	4.50774
0.401358	1.35219	0.231646	2.23578	0.756338	4.76569	0.891225	5.54722	0.964361	7.29911	0.632761	2.57469	0.822617	5.60255	0.981402	4.53051
0.402619	1.35499	0.233729	2.23568	0.760756	4.71863	0.896391	5.54233	0.971177	7.33242	0.635141	2.5356	0.827833	5.59416	0.985634	4.55307
0.403883	1.3579	0.235812	2.23556	0.765131	4.67152	0.901553	5.53849	0.978024	7.3635	0.637486	2.49764	0.833041	5.58454	0.989886	4.57538
0.40515	1.361	0.237895	2.23546	0.769461	4.62435	0.906712	5.53558	0.984898	7.39233	0.639795	2.46075	0.83824	5.57366	0.99416	4.5974
0.406419	1.36423	0.239978	2.23542	0.77799	4.53005	0.911868	5.53351	0.991799	7.41913	0.642071	2.42495	0.843427	5.56166	0.998453	4.61926
0.407692	1.3675	0.24206	2.23532	0.782189	4.48299	0.917023	5.5321	0.998723	7.44391	0.644314	2.39016	0.848603	5.54855	1.00277	4.63013
0.408967	1.37089	0.244143	2.2352	0.786344	4.43607	0.922176	5.53129	1.00567	7.45576	0.646525	2.3564	0.853766	5.53431		
0.410246	1.37441	0.246225	2.2351	0.790455	4.38929	0.92733	5.53088			0.648705	2.32366	0.858916	5.51895		
0.411528	1.37797	0.248308	2.23505	0.794523	4.34264	0.932483	5.53083			0.650855	2.29191	0.86405	5.50259		
0.412814	1.38165	0.25039	2.23499	0.798547	4.29624	0.937636	5.53102			0.652976	2.26106	0.869169	5.48526		
0.414103	1.3854	0.252473	2.23488	0.802528	4.25012	0.942789	5.5313			0.655068	2.23117	0.874271	5.46685		
0.415395	1.38921	0.254555	2.2348	0.806467	4.20424	0.947943	5.53169			0.657133	2.2022	0.879356	5.4475		
0.416692	1.3931	0.256637	2.23472	0.810363	4.15864	0.953097	5.53207			0.659172	2.17409	0.884422	5.42728		
0.417991	1.39705	0.258719	2.23467	0.814216	4.11335	0.958251	5.5323			0.661184	2.14685	0.889469	5.40614		
0.419295	1.40105	0.260801	2.23462	0.818027	4.06844	0.963406	5.53238			0.663172	2.12049	0.894496	5.38411		
0.420602	1.40509	0.262883	2.23452	0.821797	4.02387	0.96856	5.53227			0.665136	2.09489	0.899502	5.36123		
0.421913	1.4092	0.264965	2.23443	0.825525	3.97964	0.973714	5.53185			0.667076	2.07012	0.904486	5.33756		
0.423228	1.41331	0.267046	2.23439	0.829213	3.93589	0.978868	5.53109			0.668993	2.04612	0.909448	5.31313		
0.424547	1.41749	0.269128	2.23433	0.832859	3.89255	0.984021	5.52998			0.670888	2.02284	0.914387	5.28795		
0.425869	1.4217	0.27121	2.23422	0.836466	3.84957	0.989173	5.52843			0.672762	2.00037	0.919301	5.26207		
0.427196	1.42597	0.273291	2.23417	0.840033	3.80706	0.994323	5.52645			0.674616	1.97858	0.924192	5.23546		
0.428526	1.43026	0.275373	2.23415	0.84356	3.76504	0.999471	5.52403			0.676449	1.95747	0.929057	5.20821		
0.429861	1.43453	0.277455	2.2341	0.847048	3.72345	1.00462	5.52272			0.678263	1.93703	0.933897	5.18041		
0.4312	1.43887	0.279536	2.234	0.850498	3.68233					0.680059	1.91728	0.93871	5.15197		
0.432542	1.44323	0.281617	2.23395	0.85391	3.64173					0.681836	1.89815	0.943497	5.12296		
0.433889	1.44754	0.283699	2.23389	0.857284	3.60159					0.683596	1.87964	0.948256	5.09344		
0.435239	1.45192	0.28578	2.23382	0.860621	3.56192					0.685339	1.86175	0.952988	5.06341		
0.436594	1.45635	0.287861	2.23379	0.863922	3.52279					0.687065	1.84441	0.957691	5.03297		
0.437953	1.46072	0.289942	2.23374	0.867186	3.48415					0.688775	1.82769	0.962366	5.00208		
0.439316	1.46514	0.292023	2.23367	0.870414	3.44604					0.690471	1.81149	0.967012	4.97078		
