Sym0		Asym0		Sym1		Sym2		Sym3		Asym1		Asym2		Asym3	
470  Points		492  Points		203  Points		143  Points		126  Points		368  Points		157  Points		126  Points	
Freq (MHz)	Vgr (m/ms)	Freq (MHz)	Vgr (m/ms)	Freq (MHz)	Vgr (m/ms)	Freq (MHz)	Vgr (m/ms)	Freq (MHz)	Vgr (m/ms)	Freq (MHz)	Vgr (m/ms)	Freq (MHz)	Vgr (m/ms)	Freq (MHz)	Vgr (m/ms)
0.00429025	7.38182	0.000410155	0.511129	0.279538	0.157772	0.433096	0.0640982	0.559049	0.115043	0.13989	0.521398	0.419264	0.0635607	0.698771	0.0302159
0.0111679	7.38066	0.000886371	0.603913	0.279685	0.224064	0.433155	0.097251	0.559156	0.155392	0.140376	0.708058	0.419323	0.113822	0.698799	0.0590364
0.0180433	7.37752	0.00153548	0.784706	0.279955	0.356292	0.433277	0.16375	0.559339	0.236084	0.14121	1.07717	0.419476	0.21429	0.698881	0.116713
0.0249151	7.37287	0.00234858	0.95513	0.280349	0.487666	0.433461	0.230611	0.559596	0.316682	0.142383	1.43628	0.419722	0.314591	0.699017	0.174353
0.0317818	7.36671	0.00331526	1.11375	0.280864	0.617992	0.433707	0.297902	0.559929	0.397093	0.143886	1.7828	0.420062	0.414631	0.699206	0.231917
0.0386421	7.35901	0.00442394	1.25968	0.2815	0.747028	0.434016	0.365833	0.560336	0.477273	0.145705	2.11455	0.420495	0.514295	0.699449	0.289403
0.0454945	7.34969	0.00566254	1.39253	0.282256	0.874436	0.434388	0.434533	0.560818	0.557215	0.147826	2.42992	0.42102	0.613502	0.699745	0.346807
0.0523375	7.33874	0.00701876	1.51226	0.28313	0.999979	0.434825	0.50411	0.561374	0.636825	0.150233	2.72792	0.421638	0.712233	0.700095	0.404119
0.0591695	7.32613	0.00848046	1.61915	0.284119	1.12348	0.435328	0.57471	0.562005	0.716063	0.152909	3.00803	0.422347	0.810379	0.700498	0.461249
0.0659889	7.31177	0.0100359	1.7139	0.285223	1.24472	0.435896	0.646476	0.562709	0.794927	0.155838	3.27015	0.423148	0.907795	0.700955	0.518234
0.0727941	7.29555	0.0116741	1.79729	0.286439	1.36349	0.436532	0.719548	0.563486	0.873405	0.159003	3.51447	0.424039	1.00448	0.701464	0.575074
0.0795834	7.27741	0.0133849	1.87017	0.287764	1.47968	0.437237	0.793989	0.564336	0.951407	0.162387	3.74162	0.42502	1.10037	0.702026	0.631699
0.0863548	7.25732	0.015159	1.93352	0.289196	1.59311	0.438012	0.869921	0.565259	1.0289	0.165975	3.95225	0.426089	1.19532	0.702641	0.688112
0.0931066	7.23507	0.0169878	1.98824	0.290733	1.70367	0.438858	0.947519	0.566253	1.10587	0.169752	4.14719	0.427247	1.28934	0.703309	0.744323
0.0998365	7.21057	0.0188638	2.03533	0.292371	1.81133	0.439777	1.02683	0.567319	1.18225	0.173703	4.32738	0.428492	1.38232	0.704028	0.800275
0.106543	7.18376	0.0207804	2.0757	0.294108	1.91605	0.440771	1.10798	0.568456	1.25804	0.177815	4.49367	0.429823	1.47423	0.7048	0.856001
0.113223	7.15438	0.0227317	2.11006	0.295941	2.01782	0.441842	1.19108	0.569664	1.33323	0.182076	4.64702	0.431239	1.56503	0.705623	0.911425
0.119874	7.12236	0.0247123	2.13924	0.297868	2.11664	0.442991	1.27615	0.570941	1.4078	0.186475	4.78833	0.432739	1.65457	0.706498	0.966534
0.126494	7.08755	0.0267179	2.1639	0.299885	2.21261	0.44422	1.36322	0.572287	1.48165	0.190999	4.91848	0.434322	1.74291	0.707424	1.02138
0.133081	7.04964	0.0287445	2.18474	0.301991	2.30589	0.445531	1.45247	0.573702	1.55479	0.19564	5.0383	0.435987	1.83001	0.708401	1.07592
0.139631	7.00847	0.0305251	2.20014	0.304182	2.39659	0.446926	1.54389	0.575184	1.62724	0.200387	5.14851	0.437732	1.91572	0.709429	1.13008
0.14614	6.96384	0.032052	2.21146	0.306456	2.48489	0.448408	1.63744	0.576734	1.69898	0.205233	5.24984	0.439557	2.00007	0.710507	1.1839
0.152607	6.91552	0.0333202	2.21972	0.308812	2.57102	0.449978	1.73321	0.57835	1.76994	0.21017	5.34293	0.441459	2.08308	0.711635	1.23741
0.159027	6.86319	0.0343261	2.22553	0.311247	2.65534	0.451638	1.83116	0.580032	1.84008	0.215189	5.4284	0.443438	2.16465	0.712813	1.29045
0.165396	6.80658	0.0350673	2.22954	0.31376	2.7382	0.45339	1.93125	0.581779	1.90946	0.220285	5.50691	0.445493	2.24473	0.71404	1.34313
0.17171	6.74543	0.0355424	2.23193	0.31635	2.81992	0.455236	2.03344	0.58359	1.97806	0.224783	5.57007	0.447621	2.32337	0.715316	1.39548
0.177965	6.67938	0.0362261	2.23514	0.319015	2.90089	0.457179	2.13761	0.585465	2.04583	0.228656	5.62018	0.449822	2.40053	0.71664	1.44736
0.184156	6.60815	0.0369704	2.23846	0.321755	2.9816	0.459219	2.24379	0.587402	2.1128	0.231884	5.65917	0.452094	2.47618	0.718013	1.49882
0.190279	6.53146	0.0379844	2.24257	0.324571	3.06252	0.46136	2.35177	0.589402	2.17894	0.234452	5.68847	0.454436	2.55035	0.719433	1.5499
0.196327	6.44891	0.0392693	2.24715	0.327462	3.14416	0.463602	2.46139	0.591462	2.24426	0.236348	5.70917	0.456846	2.62297	0.720901	1.60048
0.202296	6.3602	0.0408263	2.25191	0.330429	3.22711	0.465946	2.57258	0.593584	2.30876	0.237565	5.72206	0.459324	2.69409	0.722415	1.65061
0.208179	6.2651	0.0426568	2.25669	0.333475	3.31176	0.468395	2.68512	0.595765	2.37237	0.23932	5.73999	0.461866	2.76373	0.723976	1.70032
0.21397	6.16331	0.0447617	2.26111	0.336601	3.39861	0.47095	2.79887	0.598004	2.4352	0.241233	5.75888	0.464474	2.83183	0.725584	1.74958
0.219663	6.05472	0.0468701	2.26453	0.339808	3.48822	0.473611	2.91356	0.600302	2.49721	0.243845	5.7836	0.467143	2.89846	0.727237	1.79835
0.225252	5.93912	0.0489814	2.26715	0.3431	3.58094	0.476379	3.02899	0.602658	2.55831	0.247163	5.81313	0.469874	2.96359	0.728935	1.84662
0.23073	5.81647	0.0510947	2.26908	0.346481	3.67703	0.479255	3.14492	0.605069	2.61863	0.251199	5.84662	0.472666	3.02728	0.730678	1.89444
0.236091	5.6869	0.0532095	2.27045	0.349952	3.77677	0.482239	3.26114	0.607537	2.67818	0.255961	5.88278	0.475515	3.08954	0.732465	1.94181
0.241327	5.55059	0.0553255	2.27136	0.353518	3.88031	0.485332	3.37742	0.61006	2.73687	0.26146	5.92044	0.478423	3.15035	0.734296	1.98866
0.246433	5.4079	0.057442	2.27181	0.357183	3.98748	0.488533	3.49345	0.612637	2.79476	0.266993	5.95428	0.481386	3.20977	0.73617	2.03505
0.251404	5.25925	0.0595587	2.27196	0.360949	4.09803	0.491841	3.60905	0.615268	2.85188	0.272556	5.98435	0.484404	3.26784	0.738088	2.08095
0.256233	5.10536	0.0616755	2.27186	0.364315	4.19695	0.495258	3.72394	0.617951	2.90818	0.278144	6.01085	0.487475	3.32457	0.740048	2.12631
0.260917	4.94701	0.0637921	2.27155	0.36725	4.28297	0.498781	3.83793	0.620687	2.96373	0.283756	6.03402	0.490599	3.38002	0.74205	2.17125
0.265452	4.78513	0.0659083	2.27106	0.369722	4.35504	0.502409	3.95078	0.623474	3.01858	0.289388	6.05396	0.493773	3.43423	0.744094	2.21572
0.269834	4.62082	0.068024	2.27038	0.371705	4.41249	0.506142	4.06228	0.626311	3.07269	0.295037	6.07085	0.496998	3.4872	0.746179	2.25962
0.274062	4.4551	0.0701389	2.26964	0.373181	4.45486	0.509979	4.17221	0.629199	3.12605	0.3007	6.08475	0.500271	3.53903	0.748305	2.30311
0.278135	4.28918	0.0722532	2.26883	0.374132	4.48214	0.513917	4.28036	0.632137	3.17872	0.306375	6.0958	0.503593	3.58974	0.75047	2.34615
0.282054	4.12432	0.0743666	2.26794	0.37551	4.52153	0.517955	4.38667	0.635122	3.23075	0.312059	6.10411	0.50696	3.63936	0.752676	2.38865
0.285821	3.96161	0.0764792	2.26703	0.377022	4.56431	0.522091	4.49094	0.638157	3.28213	0.31775	6.10976	0.510374	3.688	0.754921	2.43074
0.289437	3.80201	0.078591	2.26606	0.379101	4.62254	0.526323	4.593	0.641238	3.33289	0.323444	6.11289	0.513833	3.73569	0.757206	2.47234
0.292905	3.64657	0.0807018	2.26506	0.381767	4.69609	0.53065	4.69276	0.644367	3.38307	0.32914	6.11346	0.517335	3.78244	0.759528	2.51352
0.296231	3.49609	0.0828117	2.26408	0.385048	4.78455	0.535068	4.79009	0.647542	3.43268	0.334836	6.11155	0.520881	3.82834	0.761889	2.55426
0.29942	3.35122	0.0849207	2.26308	0.388975	4.88713	0.539575	4.88492	0.650764	3.48179	0.340528	6.10726	0.524469	3.87348	0.764288	2.59452
0.302476	3.21249	0.0870287	2.26211	0.393583	5.00266	0.54417	4.97724	0.65403	3.53037	0.346216	6.10061	0.528099	3.9179	0.766724	2.63438
0.305406	3.08021	0.0891358	2.26114	0.398297	5.11502	0.54885	5.0669	0.657342	3.57852	0.351896	6.09161	0.531769	3.96162	0.769197	2.67382
0.308216	2.95465	0.0912421	2.26018	0.403114	5.22332	0.553612	5.15385	0.660698	3.62626	0.357567	6.0803	0.535481	4.00477	0.771706	2.71286
0.310912	2.83597	0.0933474	2.25927	0.40803	5.32687	0.558454	5.2381	0.664099	3.67361	0.363226	6.06669	0.539232	4.0474	0.774252	2.75153
0.3135	2.72414	0.095452	2.25833	0.41304	5.42508	0.563372	5.3196	0.667544	3.72064	0.368872	6.05085	0.543023	4.08953	0.776834	2.78977
0.315988	2.61905	0.0975556	2.25742	0.418139	5.51743	0.568366	5.3983	0.671032	3.76739	0.374501	6.03274	0.546852	4.13123	0.77945	2.82765
0.318381	2.5205	0.0996584	2.2566	0.423321	5.60371	0.573432	5.47417	0.674564	3.81395	0.380113	6.01238	0.550721	4.17259	0.782103	2.86517
0.320684	2.42835	0.101761	2.25575	0.428581	5.68369	0.578567	5.54725	0.678139	3.86032	0.385705	5.98981	0.554627	4.21372	0.784789	2.90234
0.322906	2.34234	0.103862	2.25493	0.433912	5.7573	0.583768	5.61753	0.681757	3.90663	0.391274	5.96502	0.558063	4.24932	0.787511	2.93918
0.325049	2.2621	0.105962	2.25418	0.439309	5.82453	0.589034	5.68492	0.685419	3.95282	0.39682	5.93797	0.561015	4.27952	0.790266	2.97566
0.327121	2.18746	0.108062	2.25341	0.444765	5.88547	0.594361	5.74947	0.689123	3.99906	0.402339	5.90874	0.563471	4.30442	0.793056	3.01185
0.329125	2.11808	0.110161	2.25269	0.450276	5.94037	0.599748	5.8111	0.69287	4.04547	0.40783	5.87728	0.565423	4.32412	0.795878	3.04775
0.331067	2.05359	0.11226	2.252	0.455835	5.98935	0.60519	5.86992	0.696661	4.092	0.413291	5.84357	0.566865	4.33873	0.798735	3.0833
0.332952	1.99375	0.114358	2.25129	0.461436	6.03266	0.609976	5.91885	0.700495	4.13884	0.418719	5.80767	0.56779	4.34799	0.801624	3.11858
0.334783	1.93824	0.116455	2.25065	0.467076	6.07069	0.614087	5.95877	0.704373	4.18602	0.424113	5.76958	0.569123	4.36114	0.804546	3.15363
0.336564	1.88675	0.118552	2.25007	0.472748	6.10362	0.617506	5.99063	0.708296	4.23364	0.42947	5.72933	0.570576	4.37554	0.8075	3.18834
0.338298	1.83908	0.120648	2.24945	0.478449	6.13169	0.620223	6.01498	0.712262	4.28186	0.434789	5.6869	0.572561	4.39517	0.810487	3.22282
0.33999	1.79493	0.122743	2.24884	0.484174	6.15532	0.622227	6.03253	0.716274	4.33069	0.440067	5.64229	0.575083	4.41998	0.813506	3.25708
0.341643	1.75409	0.124838	2.24829	0.489919	6.17479	0.623513	6.04344	0.720332	4.38037	0.445303	5.59559	0.578153	4.44994	0.816556	3.2911
0.343259	1.71628	0.126933	2.24779	0.49568	6.19027	0.625366	6.05881	0.724437	4.43097	0.450494	5.54679	0.58178	4.48514	0.819638	3.32487
0.344841	1.68131	0.129027	2.24728	0.501454	6.20204	0.627384	6.07529	0.728589	4.48258	0.455638	5.49595	0.585978	4.52555	0.822752	3.35841
0.346392	1.64903	0.13112	2.24673	0.507237	6.21038	0.630139	6.09692	0.732789	4.53541	0.460735	5.44314	0.590213	4.56597	0.825896	3.39172
0.347914	1.61918	0.133213	2.24628	0.513026	6.21558	0.633636	6.12324	0.73704	4.58957	0.465781	5.38835	0.594486	4.60647	0.829072	3.42481
0.349409	1.59163	0.135306	2.24583	0.518819	6.21774	0.637885	6.15355	0.741342	4.64524	0.470775	5.33169	0.598797	4.647	0.832278	3.45773
0.35088	1.56619	0.137398	2.24539	0.524612	6.21706	0.642895	6.18694	0.745696	4.70245	0.475716	5.27326	0.603145	4.68756	0.835515	3.49039
0.352328	1.54278	0.13949	2.24498	0.530404	6.21383	0.648676	6.22228	0.749534	4.75374	0.480601	5.2131	0.607531	4.72813	0.838782	3.52284
0.353755	1.52124	0.141581	2.2446	0.536191	6.20814	0.654489	6.25442	0.75284	4.79856	0.48543	5.15131	0.611955	4.7687	0.842079	3.55513
0.355162	1.50136	0.143672	2.24418	0.541972	6.20014	0.660331	6.28323	0.755597	4.83652	0.4902	5.08804	0.616417	4.8092	0.845407	3.58719
0.356552	1.48314	0.145763	2.2438	0.547744	6.18995	0.666197	6.30866	0.757793	4.86709	0.494911	5.02337	0.620917	4.84963	0.848764	3.61902
0.357926	1.46641	0.147853	2.24345	0.553506	6.17779	0.672086	6.3306	0.759416	4.88986	0.499561	4.95742	0.625454	4.88984	0.85215	3.65068
0.359285	1.45103	0.149943	2.2431	0.559256	6.16372	0.677994	6.34893	0.760459	4.90464	0.504149	4.89028	0.630028	4.92986	0.855566	3.68212
0.36063	1.43696	0.152033	2.24278	0.564992	6.14779	0.683917	6.36356	0.761963	4.92613	0.508673	4.8221	0.63464	4.96961	0.859011	3.7133
0.361792	1.42569	0.154123	2.24247	0.570712	6.13019	0.689852	6.37442	0.763606	4.9497	0.513134	4.75307	0.639289	5.00894	0.862486	3.74431
0.362775	1.41676	0.156212	2.24213	0.576415	6.11103	0.695795	6.38143	0.765854	4.98225	0.51753	4.68326	0.643974	5.04786	0.865989	3.77513
0.363584	1.40976	0.158301	2.24182	0.582099	6.09028	0.701743	6.38453	0.768717	5.02434	0.521861	4.61286	0.648695	5.08622	0.86952	3.80565
0.364221	1.40463	0.160389	2.24155	0.587763	6.06804	0.707692	6.38362	0.772212	5.07643	0.526126	4.542	0.653451	5.12396	0.87308	3.83599
0.364688	1.40099	0.162478	2.24127	0.593406	6.04439	0.713638	6.3787	0.776359	5.13927	0.530324	4.47082	0.658243	5.16104	0.876668	3.86612
0.364986	1.39868	0.164566	2.24102	0.599026	6.01942	0.719578	6.36969	0.781181	5.21375	0.534457	4.39946	0.663068	5.19726	0.879818	3.89214
0.365413	1.39547	0.166653	2.24078	0.604623	5.99321	0.725507	6.35665	0.786074	5.29079	0.538522	4.32803	0.667927	5.23262	0.882519	3.91421
0.365877	1.39209	0.168741	2.24052	0.610194	5.96571	0.731422	6.33969	0.79104	5.37033	0.542521	4.25672	0.672819	5.267	0.884764	3.93237
0.366506	1.3878	0.170828	2.24024	0.615739	5.93701	0.73732	6.31887	0.796081	5.45229	0.546454	4.18562	0.677742	5.30027	0.886547	3.94656
0.367299	1.38263	0.172915	2.24003	0.621257	5.90721	0.743197	6.2944	0.8012	5.53655	0.550321	4.11491	0.682695	5.33247	0.887862	3.95709
0.368254	1.37676	0.175002	2.23981	0.626747	5.87624	0.749049	6.26649	0.806398	5.62281	0.554122	4.04462	0.687678	5.36347	0.888706	3.96387
0.369369	1.3705	0.177089	2.2396	0.632207	5.8442	0.754874	6.23543	0.811677	5.71084	0.557858	3.97494	0.69269	5.39311	0.889921	3.97339
0.370642	1.36399	0.179176	2.23938	0.637637	5.81118	0.760668	6.20163	0.81704	5.8003	0.561529	3.90597	0.697728	5.42144	0.891244	3.9837
0.37191	1.35817	0.181262	2.23916	0.643035	5.7771	0.76643	6.16554	0.822486	5.89073	0.565136	3.83769	0.702792	5.44842	0.89305	3.99773
0.373173	1.35306	0.183348	2.23897	0.648402	5.74204	0.772157	6.12754	0.828016	5.98169	0.56868	3.77033	0.70788	5.47393	0.895343	4.01542
0.374432	1.34857	0.185434	2.23881	0.653735	5.70609	0.777848	6.08814	0.833632	6.07265	0.572162	3.70391	0.712992	5.49796	0.89813	4.03672
0.375686	1.34464	0.18752	2.23862	0.659034	5.66918	0.783502	6.048	0.839332	6.16318	0.575582	3.63844	0.718125	5.52045	0.901418	4.06145
0.376937	1.34128	0.189605	2.23841	0.664299	5.63139	0.789118	6.00757	0.845116	6.25271	0.578941	3.57406	0.723279	5.5414	0.905215	4.08957
0.378186	1.33847	0.191691	2.23827	0.669528	5.59276	0.794696	5.96733	0.850983	6.34077	0.582242	3.51082	0.728451	5.56081	0.909038	4.11747
0.379431	1.33611	0.193776	2.23809	0.67472	5.5533	0.800237	5.92783	0.856932	6.42687	0.585483	3.44873	0.733641	5.5786	0.912887	4.14512
0.380675	1.33423	0.195861	2.23793	0.679876	5.5131	0.805742	5.88955	0.862959	6.51061	0.588668	3.38783	0.738846	5.59479	0.916762	4.17245
0.381918	1.33278	0.197946	2.23781	0.684993	5.47212	0.811212	5.85284	0.869063	6.59167	0.591796	3.32817	0.744066	5.60937	0.920662	4.19949
0.383159	1.33169	0.200031	2.23764	0.690072	5.4304	0.816648	5.818	0.875242	6.66977	0.59487	3.26973	0.749298	5.62237	0.924587	4.2263
0.384399	1.33107	0.202116	2.23745	0.695112	5.38804	0.822053	5.78531	0.881492	6.74467	0.597889	3.21261	0.754543	5.63381	0.928537	4.25278
0.385639	1.33073	0.2042	2.23731	0.700112	5.34499	0.827428	5.75497	0.88781	6.81618	0.600856	3.15676	0.759796	5.64363	0.932512	4.27898
0.386879	1.3307	0.206285	2.23721	0.705072	5.30132	0.832777	5.72706	0.894193	6.88427	0.603771	3.10218	0.765059	5.65191	0.936511	4.30497
0.388119	1.33105	0.208369	2.23709	0.709991	5.2571	0.8381	5.70168	0.900638	6.94885	0.606637	3.04889	0.770328	5.65862	0.940534	4.3306
0.389359	1.33167	0.210453	2.23695	0.714868	5.21233	0.843401	5.67885	0.907141	7.0099	0.609453	2.9969	0.775603	5.66373	0.94458	4.35598
0.3906	1.33256	0.212538	2.23681	0.719703	5.16709	0.848682	5.65846	0.9137	7.06755	0.612221	2.94626	0.780882	5.66738	0.948651	4.38108
0.391842	1.3337	0.214622	2.23667	0.724496	5.1214	0.853945	5.6405	0.920311	7.12187	0.614943	2.89688	0.786164	5.66958	0.952744	4.4059
0.393085	1.33508	0.216705	2.23656	0.729247	5.07526	0.859192	5.62478	0.926971	7.17287	0.617619	2.84872	0.791447	5.67023	0.95686	4.43051
0.39433	1.33669	0.218789	2.23643	0.733954	5.02875	0.864426	5.61125	0.933677	7.22074	0.620251	2.80186	0.796729	5.66946	0.961	4.45478
0.395576	1.33851	0.220873	2.23633	0.738617	4.98192	0.869648	5.59979	0.940426	7.26563	0.62284	2.75627	0.802011	5.66728	0.965161	4.47879
0.396824	1.34053	0.222956	2.23624	0.743237	4.93484	0.874861	5.59014	0.947215	7.30759	0.625387	2.71187	0.80729	5.6637	0.969345	4.50254
0.398074	1.34274	0.22504	2.23609	0.747813	4.8875	0.880065	5.58217	0.954043	7.34681	0.627893	2.66869	0.812565	5.6588	0.973551	4.52607
0.399326	1.34513	0.227123	2.23601	0.752344	4.83992	0.885263	5.57577	0.960905	7.38341	0.63036	2.62673	0.817834	5.6525	0.977779	4.54933
0.40058	1.34764	0.229206	2.2359	0.756831	4.79225	0.890455	5.57074	0.967801	7.41753	0.632788	2.58595	0.823097	5.64492	0.982029	4.57228
0.401837	1.35036	0.231289	2.23581	0.761274	4.74442	0.895643	5.5669	0.974727	7.44927	0.635178	2.54629	0.828353	5.63608	0.986299	4.59503
0.403097	1.35323	0.233372	2.23573	0.765672	4.69653	0.900828	5.56414	0.981682	7.47873	0.637532	2.50778	0.8336	5.62602	0.990591	4.61757
0.404359	1.35616	0.235455	2.23561	0.770025	4.64863	0.906011	5.56229	0.988663	7.50606	0.639851	2.4704	0.838836	5.61473	0.994904	4.63987
0.405624	1.35927	0.237538	2.23552	0.774334	4.60073	0.911193	5.56117	0.995669	7.53133	0.642136	2.43406	0.844062	5.60219	0.999237	4.66189
0.406892	1.36251	0.239621	2.23543	0.778598	4.55287	0.916374	5.56073	1.0027	7.54347	0.644387	2.39879	0.849276	5.58857	1.00359	4.67283
0.408163	1.36582	0.241704	2.23535	0.782818	4.50509	0.921555	5.5608			0.646606	2.3646	0.854476	5.57381		
0.409437	1.36923	0.243786	2.23524	0.786993	4.45744	0.926736	5.56124			0.648793	2.33139	0.859662	5.55793		
0.410714	1.37273	0.245869	2.23519	0.791124	4.40996	0.931917	5.56201			0.65095	2.29919	0.864832	5.54102		
0.411995	1.37638	0.247951	2.23508	0.795211	4.36267	0.9371	5.56294			0.653077	2.26796	0.869987	5.52308		
0.413279	1.38008	0.250034	2.235	0.799253	4.31558	0.942283	5.56392			0.655176	2.23766	0.875124	5.50411		
0.414566	1.38379	0.252116	2.23495	0.803252	4.26875	0.947468	5.56499			0.657247	2.2083	0.880243	5.48416		
0.415857	1.38766	0.254198	2.23486	0.807208	4.22223	0.952653	5.56597			0.659291	2.17986	0.885343	5.4633		
0.417152	1.39158	0.25628	2.23477	0.81112	4.17601	0.957839	5.56675			0.661309	2.15223	0.890423	5.44156		
0.41845	1.39551	0.258363	2.23473	0.814989	4.13008	0.963026	5.56736			0.663301	2.12549	0.895483	5.41889		
0.419752	1.39953	0.260445	2.23467	0.818816	4.08452	0.968213	5.56771			0.66527	2.09959	0.900521	5.39537		
0.421058	1.40359	0.262527	2.23457	0.8226	4.03937	0.973401	5.56773			0.667214	2.07449	0.905537	5.37108		
0.422368	1.40771	0.264608	2.23448	0.826343	3.9946	0.978588	5.56741			0.669135	2.05018	0.910529	5.34601		
0.423681	1.41189	0.26669	2.23444	0.830044	3.9502	0.983775	5.56663			0.671034	2.02663	0.915498	5.32014		
0.424999	1.41607	0.268772	2.23438	0.833703	3.90629	0.988961	5.56543			0.672912	2.00384	0.920443	5.29355		
0.42632	1.42028	0.270854	2.23432	0.837323	3.8628	0.994146	5.56374			0.674768	1.98175	0.925362	5.2663		
0.427645	1.42455	0.272936	2.23425	0.840901	3.81974	0.999329	5.5615			0.676604	1.96038	0.930256	5.23843		
0.428975	1.42881	0.275017	2.23421	0.84444	3.77715	1.00451	5.56029			0.678421	1.93973	0.935123	5.20989		
0.430308	1.43313	0.277099	2.23416	0.84794	3.73506					0.680219	1.9197	0.939964	5.18074		
0.431645	1.43749	0.27918	2.23406	0.8514	3.69347					0.681998	1.90031	0.944777	5.15112		
0.432986	1.44183	0.281262	2.23401	0.854822	3.65238					0.68376	1.88161	0.949563	5.12093		
0.434332	1.4462	0.283343	2.23398	0.858206	3.61177					0.685504	1.8635	0.95432	5.09023		
0.435681	1.45058	0.285424	2.2339	0.861552	3.57162					0.687232	1.84596	0.959048	5.05914		
0.437035	1.45501	0.287506	2.23385	0.864861	3.53202					0.688944	1.82898	0.963747	5.02755		
0.438392	1.45942	0.289587	2.23383	0.868134	3.49296					0.69064	1.81262	0.968416	4.99561		
0.439754	1.46382	0.291668	2.23375	0.87137	3.45443					0.692322	1.79678	0.973055	4.9633		
0.44112	1.46822	0.293749	2.23371	0.874571	3.41637					0.693988	1.78147	0.977665	4.93067		
