Sym0		Asym0		Sym1		Sym2		Asym1	
473  Points		491  Points		473  Points		208  Points		390  Points	
Freq (MHz)	Vph (m/ms)	Freq (MHz)	Vph (m/ms)	Freq (MHz)	Vph (m/ms)	Freq (MHz)	Vph (m/ms)	Freq (MHz)	Vph (m/ms)
0.000108607	9.53255	0.000269242	0.19253	0.0051973	9.53122	0.279519	954.407	0.139891	218.265
0.00898851	9.53093	0.000741443	0.318197	0.0140762	9.53035	0.279684	228.394	0.140576	89.3895
0.0178663	9.52978	0.00143575	0.440167	0.0229518	9.52876	0.280051	129.878	0.141826	56.6327
0.0267398	9.52787	0.00233693	0.557271	0.0318218	9.52641	0.280618	90.875	0.143625	41.7999
0.0356067	9.52517	0.00342681	0.668617	0.0406842	9.52329	0.281381	70.0013	0.145949	33.4154
0.0444651	9.52171	0.00468527	0.77354	0.0495364	9.51934	0.282334	57.0217	0.148769	28.0727
0.0533124	9.51741	0.006092	0.871704	0.0583762	9.51455	0.283472	48.1846	0.152053	24.4023
0.062146	9.51225	0.00762686	0.96295	0.0672008	9.50888	0.284787	41.7899	0.155769	21.747
0.0709633	9.50619	0.00927114	1.04735	0.0760075	9.50229	0.286271	36.9551	0.159882	19.752
0.0797613	9.49919	0.0110076	1.1251	0.0847931	9.49473	0.287912	33.1768	0.164359	18.2092
0.088537	9.49119	0.0128208	1.19649	0.0935544	9.48612	0.289702	30.1465	0.169168	16.9884
0.0972868	9.48211	0.0146975	1.2619	0.102288	9.4764	0.291629	27.6648	0.174279	16.0042
0.106007	9.47188	0.0166261	1.32176	0.110989	9.46547	0.29368	25.597	0.179664	15.1984
0.114693	9.46042	0.0185968	1.37647	0.119653	9.45325	0.295842	23.8488	0.185296	14.5296
0.12334	9.4476	0.0206014	1.42647	0.128275	9.4396	0.298105	22.3524	0.191151	13.9683
0.131942	9.43332	0.0223706	1.46653	0.136849	9.42441	0.300455	21.0575	0.197208	13.4923
0.140494	9.41742	0.0238921	1.49829	0.145369	9.40752	0.302882	19.9265	0.203447	13.085
0.148988	9.39974	0.025158	1.52302	0.153826	9.38874	0.305375	18.9302	0.209849	12.7337
0.157416	9.3801	0.0261632	1.54164	0.162212	9.36787	0.307928	18.0461	0.216398	12.4285
0.165769	9.35827	0.0269045	1.55483	0.170517	9.34469	0.310533	17.2566	0.223078	12.1614
0.174035	9.33402	0.0273798	1.56306	0.178729	9.31891	0.31319	16.5475	0.229878	11.9263
0.182204	9.30704	0.0280641	1.57461	0.186835	9.29023	0.315899	15.9075	0.236783	11.7181
0.190259	9.27702	0.0288093	1.58679	0.194819	9.2583	0.318667	15.3278	0.243782	11.5328
0.198186	9.24359	0.0298247	1.60278	0.202663	9.22274	0.321503	14.8009	0.250866	11.3669
0.205965	9.20634	0.0311119	1.62206	0.210348	9.1831	0.324422	14.321	0.258024	11.2176
0.213575	9.16482	0.0326721	1.64407	0.21785	9.13891	0.327442	13.8834	0.265248	11.0828
0.220992	9.11854	0.0345064	1.66822	0.225146	9.08969	0.330589	13.4841	0.272529	10.9603
0.228191	9.067	0.0366155	1.69389	0.232206	9.03489	0.333889	13.1201	0.27986	10.8487
0.235142	9.00969	0.0387276	1.71757	0.239004	8.97405	0.337372	12.7888	0.287234	10.7464
0.241818	8.94612	0.0408418	1.73946	0.245508	8.9067	0.341071	12.4879	0.294643	10.6523
0.248189	8.87588	0.0429572	1.75972	0.251692	8.83251	0.345017	12.2157	0.302083	10.5654
0.254229	8.79868	0.0450731	1.77852	0.25753	8.75125	0.34924	11.9704	0.309545	10.4847
0.259913	8.7144	0.0471891	1.79599	0.263003	8.66294	0.353767	11.7503	0.317025	10.4096
0.265224	8.62313	0.0493049	1.81225	0.268096	8.56778	0.358615	11.5538	0.324517	10.3393
0.270155	8.52518	0.05142	1.82742	0.272807	8.46625	0.363795	11.3791	0.332015	10.2732
0.274703	8.42112	0.0535343	1.84158	0.27714	8.35903	0.369308	11.2244	0.339515	10.2109
0.278878	8.31171	0.0556476	1.85483	0.281108	8.24696	0.375146	11.0879	0.347009	10.1518
0.282696	8.19787	0.0577599	1.86725	0.284732	8.131	0.381295	10.9676	0.354493	10.0956
0.28618	8.08057	0.0598711	1.87891	0.288036	8.01218	0.387731	10.8617	0.361962	10.0419
0.289356	7.96082	0.0619811	1.88987	0.290677	7.90707	0.394431	10.7683	0.36941	9.99026
0.292254	7.83959	0.06409	1.90019	0.292768	7.81679	0.401366	10.6858	0.376832	9.9405
0.294902	7.71775	0.0661977	1.90992	0.294395	7.74193	0.408509	10.6127	0.384221	9.8923
0.29733	7.59607	0.0683043	1.91911	0.295621	7.68274	0.415833	10.5477	0.391572	9.8454
0.299563	7.4752	0.0704097	1.9278	0.29649	7.63927	0.423314	10.4896	0.39888	9.79957
0.301627	7.35568	0.072514	1.93603	0.297033	7.61149	0.430928	10.4373	0.406137	9.75458
0.303542	7.23792	0.0746173	1.94383	0.297795	7.57162	0.438655	10.39	0.413337	9.71022
0.305327	7.12228	0.0767195	1.95124	0.2986	7.5284	0.446477	10.3469	0.420474	9.66632
0.307001	7.00899	0.0788208	1.95828	0.299658	7.46985	0.454377	10.3074	0.427541	9.62268
0.308577	6.89824	0.0809213	1.96498	0.30094	7.39628	0.462342	10.271	0.434531	9.57913
0.310068	6.79015	0.0830208	1.97136	0.302412	7.30815	0.470357	10.2372	0.441437	9.53551
0.311486	6.6848	0.0851194	1.97744	0.304041	7.20613	0.478412	10.2055	0.44825	9.49166
0.31284	6.58224	0.0872172	1.98325	0.305795	7.0911	0.486496	10.1758	0.454965	9.44746
0.314138	6.48248	0.0893144	1.9888	0.30744	6.97849	0.4946	10.1475	0.461572	9.40275
0.315387	6.38549	0.0914107	1.99411	0.308992	6.86846	0.502716	10.1206	0.468065	9.35741
0.316595	6.29127	0.0935064	1.9992	0.310462	6.76111	0.510837	10.0947	0.474436	9.31134
0.317766	6.19976	0.0956014	2.00407	0.311862	6.65652	0.518954	10.0697	0.480677	9.26442
0.318905	6.1109	0.0976958	2.00874	0.313199	6.55472	0.527063	10.0454	0.486781	9.21658
0.320017	6.02465	0.0997897	2.01322	0.314483	6.45572	0.535155	10.0217	0.492743	9.16773
0.321106	5.94093	0.101883	2.01753	0.315721	6.3595	0.543227	9.99844	0.498555	9.11782
0.322173	5.85968	0.103976	2.02168	0.316918	6.26601	0.551272	9.97545	0.504213	9.06679
0.323223	5.78082	0.106068	2.02566	0.31808	6.17523	0.559286	9.95266	0.50971	9.01462
0.324258	5.70428	0.10816	2.0295	0.319212	6.0871	0.567262	9.92997	0.515045	8.9613
0.325281	5.62998	0.110251	2.0332	0.320317	6.00154	0.575198	9.9073	0.520213	8.90684
0.326292	5.55787	0.112342	2.03676	0.321399	5.91851	0.583087	9.88456	0.525213	8.85125
0.327295	5.48785	0.114433	2.0402	0.322462	5.83791	0.590926	9.86169	0.530044	8.79457
0.32829	5.41987	0.116523	2.04352	0.323507	5.75969	0.59871	9.83861	0.534705	8.73686
0.329279	5.35385	0.118613	2.04673	0.324539	5.68377	0.606435	9.81528	0.539199	8.67817
0.330264	5.28972	0.120702	2.04982	0.325558	5.61008	0.614097	9.79164	0.543527	8.61859
0.331245	5.22743	0.122791	2.05282	0.326567	5.53854	0.621692	9.76764	0.547691	8.55819
0.332223	5.1669	0.12488	2.05572	0.327567	5.46909	0.629216	9.74323	0.551697	8.49707
0.3332	5.10808	0.126968	2.05853	0.328561	5.40165	0.636666	9.71838	0.555547	8.43533
0.334176	5.0509	0.129056	2.06125	0.329548	5.33615	0.644038	9.69306	0.559247	8.37305
0.335153	4.99531	0.131144	2.06388	0.330532	5.27253	0.651328	9.66722	0.562801	8.31035
0.33613	4.94125	0.133232	2.06644	0.331512	5.21073	0.658533	9.64085	0.565785	8.25543
0.337108	4.88868	0.135319	2.06892	0.33249	5.15067	0.665651	9.61391	0.568248	8.20847
0.338088	4.83753	0.137407	2.07132	0.333467	5.0923	0.672676	9.58638	0.57023	8.16956
0.339071	4.78777	0.139494	2.07366	0.334443	5.03557	0.679607	9.55824	0.571763	8.13876
0.340056	4.73933	0.14158	2.07593	0.335419	4.9804	0.686441	9.52949	0.572872	8.1161
0.341045	4.69218	0.143667	2.07813	0.336396	4.92676	0.693175	9.50009	0.573573	8.1016
0.342037	4.64628	0.145753	2.08027	0.337375	4.87458	0.699806	9.47004	0.574571	8.08075
0.343034	4.60157	0.147839	2.08236	0.338356	4.82381	0.706331	9.43934	0.575641	8.05808
0.344034	4.55803	0.149925	2.08439	0.339339	4.77441	0.712749	9.40797	0.577072	8.02726
0.345039	4.51561	0.152011	2.08636	0.340326	4.72633	0.719057	9.37593	0.578843	7.98831
0.346049	4.47427	0.154097	2.08828	0.341315	4.67953	0.725254	9.34322	0.580931	7.94127
0.347065	4.43398	0.156182	2.09015	0.342309	4.63396	0.731337	9.30984	0.583305	7.8862
0.348085	4.39471	0.158267	2.09197	0.343306	4.58957	0.737304	9.27579	0.585937	7.82323
0.349111	4.35641	0.160352	2.09375	0.344308	4.54634	0.743156	9.24109	0.588473	7.76056
0.350142	4.31907	0.162437	2.09548	0.345315	4.50422	0.74889	9.20575	0.590919	7.69823
0.351179	4.28265	0.164522	2.09717	0.346326	4.46317	0.754507	9.16976	0.593281	7.63631
0.352222	4.24711	0.166607	2.09882	0.347343	4.42316	0.760005	9.13316	0.595563	7.57485
0.353271	4.21244	0.168692	2.10043	0.348364	4.38416	0.765383	9.09596	0.59777	7.51387
0.354327	4.1786	0.170776	2.102	0.349392	4.34613	0.770644	9.05818	0.599905	7.45343
0.355388	4.14556	0.17286	2.10353	0.350425	4.30904	0.775785	9.01983	0.601974	7.39355
0.356456	4.11332	0.174945	2.10502	0.351463	4.27286	0.780809	8.98096	0.60398	7.33426
0.35753	4.08183	0.177029	2.10649	0.352508	4.23756	0.785716	8.94157	0.605927	7.27558
0.358611	4.05107	0.179113	2.10792	0.353559	4.20311	0.790506	8.9017	0.607818	7.21754
0.359698	4.02103	0.181197	2.10931	0.354616	4.1695	0.795182	8.86138	0.609657	7.16016
0.360791	3.99168	0.18328	2.11068	0.355679	4.13668	0.799744	8.82064	0.611446	7.10345
0.361892	3.96301	0.185364	2.11201	0.356749	4.10464	0.804194	8.77951	0.613189	7.04742
0.362856	3.93855	0.187448	2.11332	0.357824	4.07336	0.808535	8.73802	0.614889	6.99208
0.363682	3.91808	0.189531	2.1146	0.358907	4.0428	0.812768	8.6962	0.616547	6.93744
0.364368	3.90141	0.191615	2.11585	0.359996	4.01295	0.81637	8.65952	0.618167	6.8835
0.364912	3.8884	0.193698	2.11707	0.361091	3.98379	0.819378	8.62809	0.619751	6.83028
0.365313	3.87892	0.195781	2.11827	0.362193	3.95529	0.821823	8.60199	0.6213	6.77776
0.36557	3.87289	0.197864	2.11944	0.363302	3.92744	0.82373	8.5813	0.622818	6.72595
0.36594	3.86428	0.199947	2.12059	0.364418	3.90021	0.825116	8.56605	0.624305	6.67485
0.366343	3.85499	0.20203	2.12172	0.36554	3.8736	0.825997	8.55628	0.625764	6.62446
0.366893	3.84248	0.204113	2.12282	0.366668	3.84757	0.827255	8.54222	0.627196	6.57478
0.367591	3.82685	0.206196	2.12391	0.367804	3.82212	0.828609	8.52691	0.628603	6.52579
0.368438	3.80822	0.208279	2.12497	0.368946	3.79723	0.830432	8.50605	0.629987	6.4775
0.369436	3.78676	0.210362	2.12601	0.370095	3.77287	0.832705	8.47963	0.631348	6.4299
0.370588	3.76264	0.212445	2.12703	0.371251	3.74905	0.835407	8.4476	0.632689	6.38299
0.371747	3.73903	0.214527	2.12803	0.372414	3.72573	0.838512	8.40995	0.634009	6.33675
0.372912	3.71593	0.21661	2.12901	0.373583	3.70292	0.841991	8.36666	0.635312	6.29118
0.374084	3.69332	0.218692	2.12997	0.374759	3.68058	0.845383	8.32331	0.636597	6.24628
0.375263	3.67119	0.220775	2.13092	0.375942	3.65872	0.848691	8.27993	0.637865	6.20203
0.376449	3.64952	0.222857	2.13185	0.377131	3.63731	0.851917	8.23653	0.639119	6.15843
0.377641	3.62831	0.224939	2.13276	0.378327	3.61635	0.855063	8.19315	0.640358	6.11546
0.37884	3.60753	0.227022	2.13365	0.37953	3.59582	0.858133	8.1498	0.641584	6.07313
0.380045	3.58719	0.229104	2.13453	0.380739	3.57572	0.861128	8.10652	0.642797	6.03142
0.381257	3.56726	0.231186	2.13539	0.381955	3.55602	0.864051	8.06332	0.643998	5.99032
0.382476	3.54773	0.233268	2.13624	0.383177	3.53672	0.866905	8.02022	0.645188	5.94983
0.383701	3.5286	0.23535	2.13707	0.384406	3.51781	0.869692	7.97724	0.646368	5.90993
0.384933	3.50986	0.237432	2.13789	0.385642	3.49929	0.872413	7.93439	0.647537	5.87062
0.386171	3.49149	0.239514	2.1387	0.386883	3.48112	0.875072	7.8917	0.648698	5.83188
0.387416	3.47348	0.241596	2.13949	0.388132	3.46332	0.877671	7.84919	0.649851	5.79371
0.388667	3.45583	0.243678	2.14027	0.389387	3.44587	0.880211	7.80685	0.650995	5.7561
0.389924	3.43853	0.24576	2.14103	0.390648	3.42876	0.882694	7.76472	0.652132	5.71904
0.391188	3.42156	0.247842	2.14178	0.391915	3.41199	0.885123	7.72279	0.653262	5.68252
0.392458	3.40492	0.249923	2.14252	0.393189	3.39553	0.8875	7.68109	0.654386	5.64654
0.393735	3.38861	0.252005	2.14325	0.394469	3.3794	0.889827	7.63962	0.655504	5.61107
0.395017	3.3726	0.254087	2.14397	0.395755	3.36357	0.892105	7.5984	0.656616	5.57612
0.396306	3.3569	0.256168	2.14467	0.397048	3.34804	0.894336	7.55743	0.657723	5.54168
0.397601	3.3415	0.25825	2.14536	0.398346	3.33281	0.896521	7.51672	0.658826	5.50773
0.398903	3.32639	0.260332	2.14604	0.399651	3.31786	0.898664	7.47628	0.659924	5.47427
0.40021	3.31156	0.262413	2.14672	0.400962	3.30319	0.900764	7.43611	0.661018	5.44129
0.401523	3.29701	0.264495	2.14738	0.402278	3.2888	0.902824	7.39623	0.662109	5.40879
0.402842	3.28273	0.266576	2.14803	0.403601	3.27467	0.904845	7.35664	0.663196	5.37675
0.404168	3.26871	0.268657	2.14867	0.40493	3.2608	0.906829	7.31734	0.66428	5.34516
0.405499	3.25495	0.270739	2.1493	0.406264	3.24718	0.908776	7.27833	0.665362	5.31403
0.406836	3.24144	0.27282	2.14992	0.407605	3.23381	0.910689	7.23963	0.666441	5.28333
0.408179	3.22818	0.274902	2.15053	0.408951	3.22068	0.912569	7.20124	0.667517	5.25307
0.409527	3.21515	0.276983	2.15114	0.410303	3.20779	0.914416	7.16315	0.668592	5.22323
0.410882	3.20236	0.279064	2.15173	0.41166	3.19513	0.916233	7.12538	0.669666	5.19381
0.412241	3.1898	0.281145	2.15232	0.413023	3.1827	0.91802	7.08792	0.670737	5.1648
0.413607	3.17746	0.283227	2.15289	0.414392	3.17049	0.919778	7.05077	0.671808	5.1362
0.414978	3.16534	0.285308	2.15346	0.415767	3.15849	0.921509	7.01395	0.672877	5.10799
0.416355	3.15343	0.287389	2.15402	0.417147	3.1467	0.923213	6.97744	0.673946	5.08017
0.417737	3.14173	0.28947	2.15458	0.418532	3.13511	0.924891	6.94125	0.675014	5.05273
0.419125	3.13023	0.291551	2.15512	0.419923	3.12373	0.926545	6.90537	0.676081	5.02567
0.420518	3.11893	0.293632	2.15566	0.421319	3.11255	0.928176	6.86982	0.677149	4.99899
0.421917	3.10783	0.295713	2.15619	0.422721	3.10155	0.929784	6.83459	0.678216	4.97266
0.423321	3.09692	0.297794	2.15671	0.424128	3.09075	0.931369	6.79968	0.679283	4.94669
0.42473	3.08619	0.299875	2.15722	0.42554	3.08013	0.932934	6.76509	0.68035	4.92108
0.426144	3.07565	0.301956	2.15773	0.426957	3.06968	0.934479	6.73081	0.681417	4.8958
0.427564	3.06528	0.304037	2.15823	0.42838	3.05942	0.936004	6.69686	0.682485	4.87087
0.428989	3.05509	0.306118	2.15873	0.429808	3.04932	0.93751	6.66322	0.683554	4.84627
0.430419	3.04507	0.308199	2.15922	0.43124	3.0394	0.938998	6.62989	0.684623	4.822
0.431854	3.03521	0.31028	2.1597	0.432678	3.02964	0.940469	6.59688	0.685693	4.79805
0.433294	3.02552	0.312361	2.16017	0.434121	3.02004	0.941923	6.56418	0.686764	4.77442
0.434738	3.01599	0.314442	2.16064	0.435569	3.0106	0.943362	6.5318	0.687836	4.7511
0.436188	3.00661	0.316523	2.1611	0.437021	3.00131	0.944785	6.49972	0.688909	4.72808
0.437643	2.99739	0.318603	2.16156	0.438479	2.99217	0.946193	6.46795	0.689983	4.70536
0.439103	2.98832	0.320684	2.16201	0.439941	2.98319	0.947586	6.43648	0.691059	4.68295
0.440567	2.97939	0.322765	2.16246	0.441408	2.97434	0.948966	6.40532	0.692136	4.66082
0.442036	2.97061	0.324846	2.1629	0.44288	2.96564	0.950333	6.37446	0.693214	4.63897
0.44351	2.96197	0.326926	2.16333	0.444357	2.95708	0.951687	6.34389	0.694294	4.61741
0.444988	2.95347	0.329007	2.16376	0.445838	2.94865	0.953029	6.31363	0.695376	4.59613
0.446471	2.9451	0.331088	2.16418	0.447323	2.94036	0.954359	6.28366	0.696459	4.57512
0.447959	2.93686	0.333168	2.1646	0.448814	2.9322	0.955678	6.25398	0.697545	4.55437
0.449452	2.92876	0.335249	2.16501	0.450309	2.92417	0.956987	6.22458	0.698632	4.53389
0.450948	2.92078	0.33733	2.16542	0.451808	2.91626	0.958284	6.19548	0.699721	4.51366
0.45245	2.91292	0.33941	2.16582	0.453312	2.90848	0.959572	6.16666	0.700812	4.49369
0.453955	2.90519	0.341491	2.16622	0.45482	2.90081	0.96085	6.13812	0.701905	4.47397
0.455465	2.89758	0.343572	2.16661	0.456333	2.89327	0.962119	6.10987	0.703	4.4545
0.45698	2.89008	0.345652	2.167	0.457849	2.88584	0.96338	6.08188	0.704097	4.43527
0.458498	2.8827	0.347733	2.16739	0.459371	2.87852	0.964631	6.05418	0.705197	4.41628
0.460021	2.87543	0.349813	2.16776	0.460896	2.87132	0.965875	6.02674	0.706299	4.39752
0.461549	2.86827	0.351894	2.16814	0.462426	2.86422	0.96711	5.99957	0.707403	4.37899
0.46308	2.86122	0.353974	2.16851	0.463959	2.85723	0.968339	5.97267	0.708509	4.36069
0.464616	2.85428	0.356055	2.16888	0.465497	2.85035	0.96956	5.94603	0.709618	4.34261
0.466155	2.84744	0.358135	2.16924	0.467039	2.84357	0.970774	5.91965	0.710729	4.32476
0.467699	2.8407	0.360216	2.16959	0.468585	2.83689	0.971981	5.89353	0.711843	4.30712
0.469247	2.83407	0.362296	2.16995	0.470135	2.83031	0.973183	5.86767	0.712959	4.28969
0.470798	2.82753	0.364376	2.1703	0.471689	2.82383	0.974378	5.84206	0.714078	4.27247
0.472354	2.82109	0.366457	2.17064	0.473247	2.81744	0.975567	5.81669	0.7152	4.25546
0.473914	2.81474	0.368537	2.17099	0.474809	2.81114	0.976751	5.79158	0.716324	4.23865
0.475477	2.80848	0.370618	2.17132	0.476375	2.80494	0.977929	5.76671	0.71745	4.22204
0.477045	2.80232	0.372698	2.17166	0.477945	2.79883	0.979102	5.74208	0.71858	4.20562
0.478616	2.79625	0.374778	2.17199	0.479518	2.7928	0.980271	5.71769	0.719712	4.1894
0.480191	2.79026	0.376859	2.17232	0.481095	2.78687	0.981435	5.69354	0.720846	4.17338
0.48177	2.78436	0.378939	2.17264	0.482676	2.78102	0.982594	5.66962	0.721984	4.15754
0.483352	2.77854	0.381019	2.17296	0.484261	2.77525	0.983749	5.64593	0.723124	4.14188
0.484938	2.77281	0.3831	2.17327	0.485849	2.76956	0.984901	5.62248	0.724267	4.12641
0.486528	2.76716	0.38518	2.17359	0.487441	2.76396	0.986048	5.59925	0.725413	4.11111
0.488121	2.76159	0.38726	2.1739	0.489036	2.75843	0.987192	5.57624	0.726562	4.09599
0.489718	2.75609	0.389341	2.1742	0.490635	2.75298	0.988332	5.55345	0.727713	4.08105
0.491319	2.75068	0.391421	2.17451	0.492237	2.74761	0.989469	5.53088	0.728867	4.06628
0.492923	2.74534	0.393501	2.17481	0.493843	2.74231	0.990602	5.50853	0.730025	4.05167
0.49453	2.74007	0.395581	2.1751	0.495453	2.73709	0.991733	5.4864	0.731185	4.03724
0.496141	2.73488	0.397661	2.1754	0.497066	2.73194	0.992861	5.46447	0.732348	4.02296
0.497755	2.72976	0.399742	2.17569	0.498682	2.72686	0.993986	5.44275	0.733514	4.00885
0.499373	2.72471	0.401822	2.17598	0.500302	2.72185	0.995109	5.42124	0.734683	3.9949
0.500994	2.71973	0.403902	2.17626	0.501925	2.7169	0.996229	5.39994	0.735855	3.9811
0.502619	2.71481	0.405982	2.17654	0.503551	2.71203	0.997347	5.37883	0.737029	3.96746
0.504246	2.70997	0.408062	2.17682	0.50518	2.70722	0.998463	5.35793	0.738207	3.95397
0.505877	2.70519	0.410143	2.1771	0.506813	2.70248	0.999577	5.33722	0.739388	3.94062
0.507511	2.70047	0.412223	2.17737	0.508449	2.6978	1.00069	5.31671	0.740571	3.92743
0.509149	2.69582	0.414303	2.17764	0.510088	2.69318			0.741758	3.91438
0.510789	2.69123	0.416383	2.17791	0.511731	2.68863			0.742948	3.90148
0.512433	2.6867	0.418463	2.17817	0.513376	2.68413			0.744141	3.88872
0.514079	2.68223	0.420543	2.17844	0.515024	2.6797			0.745336	3.87609
0.515729	2.67782	0.422623	2.1787	0.516676	2.67532			0.746535	3.86361
0.517382	2.67347	0.424703	2.17895	0.518331	2.671			0.747737	3.85126
0.519038	2.66918	0.426783	2.17921	0.519988	2.66674			0.748941	3.83904
0.520697	2.66494	0.428863	2.17946	0.521649	2.66254			0.750149	3.82695
0.522359	2.66076	0.430943	2.17971	0.523312	2.65839			0.75136	3.815
0.524024	2.65663	0.433023	2.17996	0.524979	2.65429			0.752574	3.80317
0.525691	2.65256	0.435103	2.18021	0.526648	2.65024			0.753791	3.79147
0.527362	2.64853	0.437184	2.18045	0.52832	2.64625			0.75501	3.77989
0.529035	2.64456	0.439263	2.18069	0.529996	2.64231			0.756233	3.76843
0.530712	2.64065	0.441343	2.18093	0.531673	2.63842			0.757459	3.7571
0.532391	2.63678	0.443423	2.18116	0.533354	2.63458			0.758688	3.74588
0.534073	2.63296	0.445504	2.1814	0.535038	2.63079			0.75992	3.73479
0.535757	2.62919	0.447583	2.18163	0.536724	2.62705			0.761155	3.7238
0.537445	2.62546	0.449663	2.18186	0.538413	2.62335			0.762393	3.71294
0.539135	2.62178	0.451743	2.18209	0.540104	2.6197			0.763634	3.70218
0.540827	2.61815	0.453823	2.18231	0.541798	2.61609			0.764879	3.69154
0.542523	2.61457	0.455903	2.18254	0.543495	2.61253			0.766126	3.68101
0.544221	2.61103	0.457983	2.18276	0.545195	2.60902			0.767376	3.67058
0.545921	2.60753	0.460063	2.18298	0.546897	2.60555			0.768629	3.66026
0.547625	2.60408	0.462143	2.18319	0.548602	2.60212			0.769885	3.65005
0.54933	2.60067	0.464223	2.18341	0.550309	2.59873			0.771144	3.63994
0.551039	2.5973	0.466303	2.18362	0.552019	2.59539			0.772407	3.62994
0.552749	2.59397	0.468383	2.18384	0.553731	2.59208			0.773672	3.62003
0.554463	2.59068	0.470463	2.18405	0.555446	2.58882			0.77494	3.61023
0.556179	2.58744	0.472542	2.18425	0.557163	2.58559			0.776211	3.60052
0.557897	2.58423	0.474622	2.18446	0.558883	2.58241			0.777486	3.59091
0.559617	2.58106	0.476702	2.18466	0.560605	2.57926			0.778763	3.5814
0.56134	2.57793	0.478782	2.18487	0.562329	2.57615			0.780043	3.57198
