Sym0		Asym0		Sym1		Sym2		Asym1	
473  Points		491  Points		473  Points		208  Points		390  Points	
Freq (MHz)	Vgr (m/ms)	Freq (MHz)	Vgr (m/ms)	Freq (MHz)	Vgr (m/ms)	Freq (MHz)	Vgr (m/ms)	Freq (MHz)	Vgr (m/ms)
0.000222218	9.52847	0.00027093	0.507909	0.00529331	9.5274	0.279521	0.185307	0.1399	0.748563
0.00909984	9.5273	0.000744146	0.627062	0.0141699	9.52563	0.279694	0.293594	0.140598	1.05194
0.0179753	9.52386	0.00143939	0.857153	0.0230433	9.52085	0.280068	0.50881	0.141861	1.64934
0.0268465	9.51808	0.00234136	1.06926	0.031911	9.51369	0.280642	0.720615	0.143671	2.22451
0.0357112	9.50989	0.00343185	1.26087	0.040771	9.50414	0.281411	0.927649	0.146006	2.77148
0.0445671	9.49929	0.00469085	1.4308	0.0496209	9.492	0.28237	1.12858	0.148836	3.28615
0.0534121	9.48601	0.00609798	1.57905	0.0584583	9.47717	0.283514	1.32207	0.152129	3.76587
0.0622433	9.46993	0.00763324	1.70645	0.0672806	9.45945	0.284834	1.50683	0.155853	4.20947
0.0710582	9.45087	0.00927775	1.81453	0.0760849	9.43851	0.286322	1.68167	0.159973	4.61707
0.0798539	9.42849	0.0110144	1.90516	0.0848682	9.41413	0.287967	1.84553	0.164456	4.98976
0.0886272	9.40256	0.0128278	1.98036	0.0936271	9.38602	0.289761	1.99754	0.169271	5.32907
0.0973746	9.37268	0.0147046	2.04223	0.102358	9.35369	0.29169	2.13684	0.174386	5.63702
0.106092	9.33839	0.0166333	2.09263	0.111057	9.31663	0.293742	2.26302	0.179775	5.91592
0.114776	9.2992	0.018604	2.13339	0.119719	9.27431	0.295907	2.37594	0.18541	6.16803
0.12342	9.25443	0.0206086	2.16626	0.128338	9.22607	0.29817	2.47572	0.191268	6.39552
0.13202	9.20335	0.0223778	2.18945	0.13691	9.17103	0.30052	2.56308	0.197327	6.60061
0.14057	9.14512	0.0238993	2.20574	0.145428	9.10828	0.302946	2.63921	0.203568	6.78534
0.149061	9.0787	0.0251652	2.2172	0.153883	9.03667	0.305438	2.70592	0.209971	6.95149
0.157487	9.00291	0.0261705	2.22509	0.162266	8.95484	0.307988	2.76566	0.216521	7.10074
0.165837	8.9163	0.0269118	2.23014	0.170569	8.86135	0.310591	2.8215	0.223203	7.23469
0.174101	8.81727	0.027387	2.2332	0.178779	8.75442	0.313245	2.87707	0.230002	7.3547
0.182267	8.70395	0.0280713	2.23732	0.186882	8.63196	0.315952	2.93665	0.236907	7.462
0.19032	8.57413	0.0288165	2.24124	0.194863	8.49171	0.318718	3.00476	0.243907	7.5576
0.198244	8.42553	0.0298319	2.24613	0.202705	8.33119	0.321551	3.08635	0.25099	7.64244
0.20602	8.25547	0.0311191	2.25139	0.210388	8.14768	0.324469	3.18632	0.258148	7.71749
0.213627	8.06126	0.0326793	2.25653	0.217888	7.9385	0.327489	3.30942	0.265371	7.78344
0.221041	7.84034	0.0345136	2.26132	0.22518	7.7012	0.330635	3.46011	0.272651	7.84085
0.228237	7.59032	0.0366226	2.26533	0.232238	7.4338	0.333936	3.64197	0.279981	7.89035
0.235185	7.30958	0.0387348	2.26806	0.239032	7.1352	0.337422	3.85737	0.287354	7.93242
0.241857	6.99762	0.0408489	2.26983	0.245534	6.80577	0.341124	4.10719	0.294762	7.96742
0.248224	6.65555	0.0429643	2.27079	0.251714	6.44781	0.345075	4.39017	0.3022	7.99568
0.254259	6.28656	0.0450803	2.27108	0.257548	6.06564	0.349305	4.70272	0.309661	8.01755
0.259939	5.89598	0.0471963	2.27098	0.263017	5.66597	0.353838	5.03881	0.31714	8.03324
0.265246	5.49128	0.049312	2.27052	0.268106	5.25724	0.358694	5.39026	0.324631	8.04287
0.270171	5.08148	0.0514271	2.26974	0.272813	4.84875	0.363882	5.74767	0.332127	8.0466
0.274715	4.67607	0.0535414	2.26877	0.277141	4.44999	0.369404	6.10119	0.339625	8.04446
0.278885	4.28413	0.0556547	2.26773	0.281105	4.0693	0.375251	6.44187	0.347117	8.03652
0.282698	3.91326	0.0577671	2.26659	0.284724	3.71309	0.381408	6.76237	0.3546	8.02277
0.286176	3.569	0.0598783	2.26532	0.288024	3.38505	0.387852	7.05745	0.362067	8.00317
0.289348	3.25482	0.0619883	2.26407	0.290661	3.12388	0.394559	7.3241	0.369513	7.97768
0.292241	2.97194	0.0640971	2.26285	0.29275	2.92011	0.4015	7.56121	0.376932	7.9461
0.294886	2.72004	0.0662048	2.26162	0.294375	2.76458	0.408648	7.76926	0.384319	7.90836
0.29731	2.49762	0.0683114	2.26039	0.295599	2.64967	0.415977	7.94967	0.391669	7.86422
0.29954	2.30239	0.0704168	2.25918	0.296467	2.56943	0.423461	8.10454	0.398974	7.81352
0.3016	2.13181	0.0725211	2.25803	0.297009	2.52035	0.431079	8.23622	0.406228	7.75614
0.303512	1.98319	0.0746244	2.25694	0.29777	2.45265	0.438809	8.34709	0.413426	7.6917
0.305296	1.85392	0.0767267	2.25588	0.298574	2.38213	0.446633	8.43941	0.420561	7.62002
0.306967	1.74155	0.078828	2.25488	0.299631	2.29173	0.454535	8.51528	0.427625	7.54096
0.308541	1.64396	0.0809284	2.2539	0.300911	2.18564	0.4625	8.57657	0.434613	7.45417
0.31003	1.55916	0.0830279	2.25294	0.302381	2.06869	0.470516	8.62482	0.441515	7.35949
0.311446	1.48543	0.0851265	2.25209	0.304008	1.9459	0.478571	8.66155	0.448326	7.25683
0.312798	1.4214	0.0872244	2.25126	0.305759	1.82186	0.486656	8.6879	0.455038	7.14601
0.314095	1.36577	0.0893215	2.25044	0.307403	1.71369	0.49476	8.7048	0.461642	7.02697
0.315343	1.31737	0.0914179	2.24971	0.308953	1.61977	0.502876	8.71318	0.468132	6.89987
0.31655	1.27533	0.0935136	2.24897	0.310421	1.53816	0.510996	8.71376	0.474499	6.76475
0.31772	1.23888	0.0956086	2.24827	0.311819	1.46718	0.519113	8.70708	0.480737	6.62187
0.318858	1.2072	0.097703	2.24767	0.313155	1.40554	0.527221	8.69364	0.486838	6.47161
0.319969	1.1798	0.0997969	2.24707	0.314438	1.35195	0.535313	8.67387	0.492796	6.31451
0.321057	1.15613	0.10189	2.24645	0.315674	1.30537	0.543384	8.64818	0.498605	6.15119
0.322123	1.13575	0.103983	2.24591	0.31687	1.26495	0.551428	8.61678	0.504258	5.98238
0.323173	1.11836	0.106075	2.24543	0.318031	1.22979	0.55944	8.57991	0.509752	5.80897
0.324207	1.10348	0.108167	2.24493	0.319162	1.19936	0.567416	8.5379	0.515083	5.63192
0.325229	1.09088	0.110258	2.24442	0.320266	1.17305	0.57535	8.49085	0.520247	5.45229
0.32624	1.08032	0.112349	2.24398	0.321348	1.1503	0.583238	8.43894	0.525242	5.27115
0.327242	1.07158	0.11444	2.24358	0.32241	1.13076	0.591075	8.38236	0.530069	5.08963
0.328237	1.06451	0.11653	2.24316	0.323455	1.11407	0.598857	8.32121	0.534726	4.90876
0.329226	1.05885	0.11862	2.24281	0.324486	1.09986	0.60658	8.25566	0.539216	4.72952
0.33021	1.05448	0.120709	2.24241	0.325504	1.08785	0.614241	8.18581	0.543539	4.55299
0.331191	1.05133	0.122798	2.24206	0.326513	1.07778	0.621834	8.11179	0.5477	4.37994
0.332169	1.04918	0.124887	2.24178	0.327513	1.06952	0.629356	8.03378	0.551701	4.21117
0.333146	1.04798	0.126975	2.24142	0.328506	1.06283	0.636804	7.9518	0.555547	4.04729
0.334122	1.04762	0.129064	2.24113	0.329493	1.05754	0.644173	7.866	0.559242	3.88879
0.335098	1.04807	0.131152	2.24087	0.330476	1.05351	0.651461	7.7765	0.562793	3.73599
0.336075	1.04919	0.133239	2.24056	0.331456	1.05061	0.658664	7.68342	0.565773	3.60769
0.337053	1.05092	0.135327	2.2403	0.332434	1.04876	0.665778	7.58689	0.568233	3.50201
0.338033	1.05328	0.137414	2.24006	0.33341	1.0478	0.672801	7.48701	0.570213	3.41731
0.339016	1.0561	0.139501	2.23982	0.334386	1.04768	0.67973	7.38392	0.571744	3.35204
0.340001	1.0594	0.141587	2.2396	0.335363	1.04832	0.686561	7.2778	0.572852	3.30491
0.34099	1.06313	0.143674	2.23938	0.33634	1.04959	0.693291	7.16876	0.573552	3.27533
0.341982	1.06723	0.14576	2.23919	0.337318	1.05151	0.699919	7.05694	0.574549	3.23343
0.342978	1.0717	0.147846	2.23899	0.338299	1.05401	0.706441	6.9425	0.575617	3.1886
0.343979	1.07646	0.149932	2.23874	0.339282	1.05694	0.712855	6.82569	0.577046	3.12904
0.344984	1.08151	0.152018	2.23858	0.340269	1.06038	0.71916	6.7067	0.578816	3.0558
0.345994	1.08685	0.154104	2.23843	0.341258	1.06423	0.725352	6.58576	0.580901	2.97039
0.347009	1.0924	0.156189	2.23824	0.342252	1.06839	0.731432	6.46304	0.583273	2.87445
0.34803	1.09815	0.158274	2.23808	0.343249	1.07296	0.737396	6.33881	0.585901	2.76978
0.349056	1.10409	0.16036	2.23792	0.344251	1.07784	0.743243	6.2134	0.588434	2.67075
0.350087	1.11018	0.162445	2.23777	0.345258	1.08292	0.748974	6.08701	0.590877	2.57722
0.351124	1.11644	0.164529	2.23762	0.346269	1.08832	0.754586	5.95993	0.593236	2.489
0.352167	1.12287	0.166614	2.23747	0.347286	1.09394	0.760079	5.83248	0.595515	2.40585
0.353217	1.12943	0.168699	2.23732	0.348307	1.09972	0.765454	5.70495	0.597719	2.32747
0.354272	1.13602	0.170783	2.23721	0.349335	1.10569	0.77071	5.57753	0.599852	2.25367
0.355334	1.14278	0.172867	2.23709	0.350368	1.11186	0.775847	5.45059	0.601919	2.18418
0.356401	1.14962	0.174952	2.23695	0.351407	1.1182	0.780866	5.32445	0.603922	2.11875
0.357476	1.15648	0.177036	2.23684	0.352451	1.12463	0.785769	5.19922	0.605867	2.05725
0.358556	1.16348	0.17912	2.23672	0.353502	1.13118	0.790555	5.07527	0.607756	1.99936
0.359644	1.17052	0.181204	2.23662	0.354559	1.13786	0.795226	4.95283	0.609592	1.94486
0.360738	1.17756	0.183287	2.23653	0.355623	1.14464	0.799784	4.83202	0.61138	1.89365
0.361838	1.18469	0.185371	2.23641	0.356692	1.15148	0.80423	4.71309	0.613121	1.84549
0.362802	1.1909	0.187455	2.23632	0.357768	1.15837	0.808566	4.59621	0.614819	1.80014
0.363628	1.19621	0.189538	2.2362	0.358851	1.16537	0.812794	4.48148	0.616475	1.75754
0.364314	1.20065	0.191622	2.2361	0.35994	1.17243	0.816393	4.38338	0.618093	1.71749
0.364858	1.20412	0.193705	2.23602	0.361035	1.1795	0.819398	4.30122	0.619676	1.67977
0.36526	1.20675	0.195788	2.23594	0.362138	1.1866	0.82184	4.23434	0.621224	1.64429
0.365517	1.20847	0.197871	2.23586	0.363246	1.19377	0.823745	4.18202	0.62274	1.61095
0.365887	1.21073	0.199955	2.23579	0.364362	1.20098	0.82513	4.14407	0.624225	1.57959
0.36629	1.21325	0.202038	2.23568	0.365484	1.20817	0.82601	4.11992	0.625683	1.55011
0.36684	1.21686	0.20412	2.23558	0.366613	1.21536	0.827266	4.08541	0.627114	1.5224
0.367538	1.22125	0.206203	2.23554	0.367749	1.22258	0.828619	4.04842	0.62852	1.49628
0.368385	1.22665	0.208286	2.23548	0.368892	1.22985	0.83044	3.99856	0.629902	1.47176
0.369384	1.23298	0.210369	2.23541	0.370041	1.23711	0.83271	3.93634	0.631262	1.44873
0.370536	1.24017	0.212452	2.23534	0.371197	1.24433	0.835409	3.86251	0.632602	1.42704
0.371694	1.24739	0.214534	2.23527	0.372359	1.25153	0.83851	3.77787	0.633921	1.40667
0.37286	1.25463	0.216617	2.23516	0.373529	1.25875	0.841985	3.68328	0.635223	1.38751
0.374032	1.26187	0.218699	2.23511	0.374705	1.26595	0.845373	3.59135	0.636507	1.36951
0.375211	1.26904	0.220782	2.23508	0.375888	1.27314	0.848677	3.50216	0.637775	1.35264
0.376397	1.27618	0.222864	2.23503	0.377077	1.28029	0.851899	3.41571	0.639027	1.33676
0.377589	1.28338	0.224946	2.23497	0.378273	1.28742	0.855042	3.33191	0.640266	1.32187
0.378788	1.29053	0.227029	2.23486	0.379476	1.29457	0.858108	3.25083	0.64149	1.30791
0.379994	1.29762	0.229111	2.23481	0.380686	1.30166	0.861099	3.17242	0.642703	1.29481
0.381206	1.30468	0.231193	2.23479	0.381902	1.30872	0.864019	3.09656	0.643903	1.28254
0.382425	1.31172	0.233275	2.23474	0.383124	1.31577	0.86687	3.02322	0.645093	1.27103
0.383651	1.31876	0.235357	2.23467	0.384354	1.32273	0.869653	2.95234	0.646272	1.26022
0.384883	1.32572	0.237439	2.23464	0.385589	1.32973	0.872371	2.88394	0.647441	1.25016
0.386121	1.33268	0.239521	2.23459	0.386831	1.33667	0.875027	2.81792	0.648601	1.24078
0.387366	1.33961	0.241603	2.23453	0.38808	1.34351	0.877622	2.75415	0.649753	1.23198
0.388617	1.34647	0.243685	2.2345	0.389335	1.35041	0.880159	2.69267	0.650897	1.22381
0.389875	1.35335	0.245767	2.23441	0.390596	1.35723	0.882639	2.63337	0.652033	1.21614
0.391139	1.36016	0.247849	2.23436	0.391864	1.36397	0.885066	2.57618	0.653163	1.20904
0.392409	1.36689	0.24993	2.23438	0.393138	1.37075	0.88744	2.52107	0.654286	1.20246
0.393686	1.37359	0.252012	2.23431	0.394418	1.37743	0.889763	2.46792	0.655404	1.19631
0.394969	1.38028	0.254094	2.23424	0.395705	1.38407	0.892038	2.41669	0.656515	1.19067
0.396258	1.38691	0.256175	2.23425	0.396997	1.39069	0.894267	2.36739	0.657622	1.18543
0.397553	1.39353	0.258257	2.23421	0.398296	1.39725	0.89645	2.31989	0.658724	1.18058
0.398855	1.40006	0.260339	2.23415	0.399601	1.4038	0.898589	2.27412	0.659822	1.17614
0.400162	1.40655	0.26242	2.23409	0.400912	1.41025	0.900687	2.23004	0.660916	1.17209
0.401476	1.41301	0.264502	2.23406	0.402229	1.41667	0.902745	2.1876	0.662006	1.16838
0.402795	1.41943	0.266583	2.23404	0.403552	1.42306	0.904764	2.14675	0.663093	1.16502
0.404121	1.42579	0.268664	2.234	0.40488	1.42941	0.906745	2.10739	0.664177	1.16195
0.405452	1.43212	0.270746	2.23398	0.406215	1.43569	0.908691	2.06955	0.665258	1.15917
0.406789	1.4384	0.272827	2.23393	0.407556	1.44195	0.910601	2.03309	0.666337	1.15672
0.408132	1.44457	0.274908	2.2339	0.408902	1.44815	0.912479	1.99797	0.667414	1.15454
0.409481	1.45074	0.27699	2.23389	0.410254	1.45426	0.914324	1.96423	0.668488	1.15261
0.410836	1.4569	0.279071	2.23381	0.411612	1.46035	0.916139	1.93172	0.669561	1.15091
0.412196	1.46298	0.281152	2.23381	0.412975	1.46643	0.917924	1.90042	0.670633	1.14944
0.413562	1.46899	0.283234	2.23381	0.414344	1.47244	0.91968	1.87033	0.671703	1.14823
0.414933	1.475	0.285315	2.23373	0.415719	1.47838	0.921409	1.84138	0.672773	1.14726
0.41631	1.48093	0.287396	2.2337	0.417099	1.48427	0.923112	1.81346	0.673841	1.14644
0.417693	1.48679	0.289477	2.23368	0.418485	1.49015	0.924788	1.78665	0.674909	1.14585
0.419081	1.49265	0.291558	2.23367	0.419876	1.49595	0.926441	1.76086	0.675976	1.14544
0.420474	1.49843	0.293639	2.23363	0.421272	1.5017	0.92807	1.73603	0.677043	1.1452
0.421873	1.50418	0.29572	2.23361	0.422674	1.50744	0.929676	1.71215	0.67811	1.14516
0.423277	1.50988	0.297801	2.2336	0.424081	1.51312	0.93126	1.68915	0.679177	1.14524
0.424686	1.51551	0.299882	2.23356	0.425494	1.51875	0.932823	1.66703	0.680244	1.14547
0.426101	1.52114	0.301963	2.23354	0.426911	1.52427	0.934366	1.64579	0.681312	1.14588
0.427521	1.52667	0.304044	2.23349	0.428334	1.52978	0.93589	1.62532	0.682379	1.14645
0.428946	1.53214	0.306125	2.23346	0.429762	1.53528	0.937395	1.60564	0.683448	1.14713
0.430376	1.53763	0.308206	2.23345	0.431195	1.54074	0.938882	1.58672	0.684517	1.14795
0.431811	1.54304	0.310287	2.23341	0.432633	1.54611	0.940352	1.56846	0.685587	1.14888
0.433251	1.54839	0.312368	2.23343	0.434076	1.55143	0.941805	1.55095	0.686658	1.14989
0.434696	1.5537	0.314449	2.2334	0.435524	1.55673	0.943242	1.53414	0.68773	1.15105
0.436146	1.55899	0.316529	2.23335	0.436977	1.56197	0.944663	1.51793	0.688803	1.15237
0.437601	1.5642	0.31861	2.23336	0.438434	1.56716	0.94607	1.50232	0.689877	1.15372
0.439061	1.56936	0.320691	2.23333	0.439897	1.57228	0.947463	1.48738	0.690953	1.1552
0.440526	1.57451	0.322772	2.23327	0.441364	1.57741	0.948842	1.47298	0.69203	1.15679
0.441995	1.57958	0.324853	2.23328	0.442836	1.5825	0.950207	1.45912	0.693108	1.15838
0.443469	1.5846	0.326933	2.23325	0.444313	1.58749	0.951561	1.44582	0.694188	1.16013
0.444948	1.5896	0.329014	2.2332	0.445794	1.59241	0.952902	1.43301	0.69527	1.16196
0.446431	1.59459	0.331095	2.23321	0.44728	1.59736	0.954231	1.42071	0.696353	1.16386
0.447919	1.59947	0.333175	2.23322	0.448771	1.60225	0.955549	1.40893	0.697439	1.16584
0.449411	1.60432	0.335256	2.23318	0.450266	1.60707	0.956856	1.39758	0.698526	1.16789
0.450908	1.60917	0.337337	2.23317	0.451765	1.61187	0.958153	1.38663	0.699615	1.17001
0.45241	1.61389	0.339417	2.23316	0.453269	1.61661	0.95944	1.37617	0.700706	1.17214
0.453916	1.6186	0.341498	2.23312	0.454778	1.62132	0.960717	1.36611	0.701799	1.17437
0.455426	1.6233	0.343578	2.2331	0.456291	1.62599	0.961986	1.35646	0.702894	1.1767
0.456941	1.62799	0.345659	2.23309	0.457808	1.63059	0.963245	1.34721	0.703992	1.17907
0.45846	1.63257	0.34774	2.23304	0.459329	1.63516	0.964496	1.33826	0.705091	1.18146
0.459983	1.6371	0.34982	2.23302	0.460855	1.63972	0.965739	1.32972	0.706193	1.1839
0.46151	1.64163	0.351901	2.23305	0.462384	1.64419	0.966974	1.32154	0.707297	1.18641
0.463042	1.64609	0.353981	2.23303	0.463918	1.64863	0.968201	1.31367	0.708404	1.18898
0.464577	1.65056	0.356061	2.23301	0.465456	1.65304	0.969422	1.30615	0.709513	1.19158
0.466117	1.65495	0.358142	2.23297	0.466999	1.65745	0.970635	1.29891	0.710624	1.19416
0.467661	1.65927	0.360222	2.23295	0.468545	1.66177	0.971842	1.29199	0.711738	1.19685
0.469209	1.6636	0.362303	2.23298	0.470095	1.66602	0.973043	1.28539	0.712854	1.19962
0.470761	1.66784	0.364383	2.23295	0.471649	1.67027	0.974237	1.27901	0.713973	1.20236
0.472317	1.67209	0.366464	2.2329	0.473208	1.67449	0.975426	1.27292	0.715095	1.20512
0.473877	1.6763	0.368544	2.23288	0.47477	1.67864	0.976609	1.2671	0.716219	1.20796
0.475441	1.68042	0.370624	2.2329	0.476336	1.68281	0.977787	1.26155	0.717346	1.21082
0.477008	1.68453	0.372705	2.23288	0.477905	1.6869	0.97896	1.25625	0.718475	1.21367
0.47858	1.68864	0.374785	2.23287	0.479479	1.69093	0.980128	1.25114	0.719607	1.21656
0.480155	1.69267	0.376866	2.23286	0.481056	1.69496	0.981291	1.24628	0.720742	1.21951
0.481734	1.69666	0.378946	2.23282	0.482637	1.69891	0.98245	1.24166	0.72188	1.22248
0.483316	1.70064	0.381026	2.2328	0.484222	1.70287	0.983605	1.23726	0.72302	1.22547
0.484903	1.70456	0.383106	2.23279	0.48581	1.70679	0.984756	1.23304	0.724163	1.22847
0.486493	1.70843	0.385187	2.23279	0.487402	1.71065	0.985903	1.22899	0.725309	1.23147
0.488086	1.71227	0.387267	2.23278	0.488998	1.71449	0.987046	1.22517	0.726458	1.23454
0.489683	1.71613	0.389347	2.23278	0.490597	1.71827	0.988186	1.22158	0.72761	1.23762
0.491284	1.71993	0.391428	2.23275	0.4922	1.72207	0.989322	1.21814	0.728764	1.24069
0.492888	1.72366	0.393508	2.23273	0.493806	1.7258	0.990455	1.21484	0.729922	1.24377
0.494496	1.72735	0.395588	2.23272	0.495416	1.72946	0.991586	1.21173	0.731082	1.24688
0.496107	1.73103	0.397668	2.23271	0.497029	1.73312	0.992713	1.20878	0.732245	1.25005
0.497721	1.73467	0.399748	2.23271	0.498645	1.73674	0.993838	1.20602	0.733411	1.25317
0.499339	1.73828	0.401829	2.23267	0.500265	1.74035	0.994961	1.2034	0.73458	1.25631
0.50096	1.74188	0.403909	2.23269	0.501888	1.74391	0.996081	1.20088	0.735752	1.25949
0.502585	1.7454	0.405989	2.23266	0.503514	1.74741	0.997198	1.19856	0.736927	1.26265
0.504213	1.74892	0.408069	2.23265	0.505144	1.75092	0.998314	1.19637	0.738105	1.26584
0.505844	1.7524	0.410149	2.23264	0.506777	1.75436	0.999428	1.19432	0.739286	1.26905
0.507478	1.75586	0.412229	2.2326	0.508413	1.7578	1.00054	1.19335	0.74047	1.27227
0.509116	1.75928	0.414309	2.23262	0.510053	1.76121			0.741657	1.27549
0.510756	1.76263	0.41639	2.23263	0.511695	1.76456			0.742846	1.27867
0.5124	1.76599	0.41847	2.23259	0.513341	1.76788			0.744039	1.28191
0.514047	1.76929	0.42055	2.23258	0.514989	1.77119			0.745235	1.28514
0.515697	1.77258	0.42263	2.23257	0.516641	1.77445			0.746434	1.28837
0.51735	1.77588	0.42471	2.23257	0.518296	1.7777			0.747636	1.29163
0.519006	1.7791	0.42679	2.23256	0.519954	1.78093			0.748841	1.29487
0.520665	1.78228	0.42887	2.23253	0.521614	1.78409			0.750049	1.2981
0.522327	1.78545	0.43095	2.23254	0.523278	1.78724			0.75126	1.30137
0.523992	1.78857	0.43303	2.23252	0.524945	1.79035			0.752474	1.30465
0.52566	1.79167	0.43511	2.2325	0.526614	1.79345			0.753691	1.30786
0.527331	1.79476	0.43719	2.23253	0.528287	1.79653			0.754911	1.31112
0.529005	1.79784	0.43927	2.23247	0.529962	1.79958			0.756134	1.31439
0.530681	1.80088	0.44135	2.23245	0.53164	1.80257			0.75736	1.31764
0.53236	1.80387	0.44343	2.23247	0.533321	1.80556			0.758589	1.32092
0.534042	1.80683	0.44551	2.23248	0.535004	1.80852			0.759821	1.32416
0.535727	1.80974	0.44759	2.23248	0.536691	1.81143			0.761057	1.3274
0.537415	1.81265	0.44967	2.23245	0.53838	1.81432			0.762295	1.33063
0.539105	1.81558	0.45175	2.23243	0.540071	1.81722			0.763536	1.33389
0.540798	1.81843	0.45383	2.23242	0.541766	1.82007			0.76478	1.33717
0.542493	1.82129	0.45591	2.23238	0.543463	1.82284			0.766028	1.34042
0.544191	1.82411	0.45799	2.2324	0.545163	1.82566			0.767278	1.34366
0.545892	1.82687	0.46007	2.23241	0.546865	1.82846			0.768531	1.34689
0.547596	1.82961	0.46215	2.23238	0.54857	1.83122			0.769788	1.35011
0.549302	1.83233	0.46423	2.2324	0.550277	1.83391			0.771047	1.35334
0.55101	1.83508	0.466309	2.23237	0.551987	1.83661			0.77231	1.3566
0.552721	1.83778	0.468389	2.23236	0.553699	1.83928			0.773575	1.35984
0.554434	1.84041	0.470469	2.23235	0.555414	1.8419			0.774844	1.36303
0.55615	1.84304	0.472549	2.23235	0.557132	1.84453			0.776115	1.36624
0.557869	1.84568	0.474629	2.23234	0.558851	1.84716			0.777389	1.36942
0.55959	1.84824	0.476709	2.23231	0.560574	1.84972			0.778667	1.37262
0.561313	1.8508	0.478789	2.23232	0.562298	1.85228			0.779947	1.37587
