Sym0		Asym0		Sym1		Sym2		Asym1	
472  Points		490  Points		473  Points		206  Points		390  Points	
Freq (MHz)	Vph (m/ms)	Freq (MHz)	Vph (m/ms)	Freq (MHz)	Vph (m/ms)	Freq (MHz)	Vph (m/ms)	Freq (MHz)	Vph (m/ms)
0.00798174	9.55293	0.000717081	0.313342	0.00432586	9.5531	0.279607	306.167	0.139821	313.814
0.0168803	9.55187	0.00140328	0.435775	0.0132255	9.55241	0.279909	151.717	0.140387	101.933
0.0257747	9.55002	0.00229741	0.553341	0.0221219	9.55088	0.280414	100.99	0.141525	61.2944
0.0346629	9.5474	0.00338125	0.665132	0.0310129	9.54858	0.281118	75.8071	0.143218	44.1944
0.0435425	9.54397	0.0046349	0.770523	0.0398963	9.54548	0.282016	60.779	0.145443	34.859
0.0524111	9.5397	0.00603764	0.869105	0.0487697	9.54155	0.283103	50.8106	0.148173	29.0306
0.0612662	9.53455	0.00756946	0.960754	0.0576307	9.53678	0.284371	43.7264	0.151376	25.08
0.070105	9.52851	0.00921134	1.04551	0.0664765	9.53111	0.285812	38.4409	0.155019	22.2491
0.0789247	9.52152	0.010946	1.12359	0.0753044	9.52451	0.287417	34.3521	0.159067	20.1373
0.087722	9.51351	0.012758	1.19527	0.0841114	9.51693	0.289176	31.0992	0.163487	18.5133
0.0964936	9.50443	0.0146338	1.26094	0.0928939	9.5083	0.291077	28.4528	0.168247	17.234
0.105235	9.49419	0.0165618	1.32102	0.101648	9.49854	0.293109	26.2598	0.173315	16.2065
0.113943	9.4827	0.0185321	1.37592	0.110371	9.48758	0.295259	24.4145	0.178663	15.3677
0.122612	9.46986	0.0205364	1.42609	0.119056	9.47531	0.297516	22.8414	0.184265	14.6736
0.131236	9.45555	0.0223055	1.46627	0.127699	9.46161	0.299866	21.485	0.190095	14.0923
0.13981	9.43961	0.023827	1.49812	0.136294	9.44636	0.302298	20.3039	0.196131	13.6004
0.148326	9.4219	0.0250929	1.52291	0.144835	9.4294	0.304803	19.2665	0.202353	13.1803
0.156776	9.40222	0.0260981	1.54158	0.153313	9.41055	0.307371	18.3482	0.208742	12.8185
0.165151	9.38036	0.0268394	1.55481	0.161721	9.38962	0.309995	17.5299	0.215281	12.5047
0.17344	9.35607	0.0273147	1.56306	0.170046	9.36636	0.312674	16.7965	0.221956	12.2305
0.181632	9.32907	0.027999	1.57464	0.17828	9.34051	0.315405	16.1356	0.228751	11.9894
0.189711	9.29903	0.0287442	1.58685	0.186407	9.31176	0.318195	15.5377	0.235654	11.7762
0.197661	9.2656	0.0297597	1.60287	0.194412	9.27977	0.32105	14.9949	0.242655	11.5865
0.205465	9.22837	0.0310469	1.62219	0.202279	9.24415	0.323983	14.5009	0.249741	11.417
0.213101	9.1869	0.0326072	1.64426	0.209986	9.20448	0.327013	14.0506	0.256903	11.2646
0.220546	9.1407	0.0344416	1.66845	0.217513	9.16028	0.33016	13.6398	0.264133	11.127
0.227774	9.08928	0.0365507	1.69416	0.224833	9.11106	0.333452	13.2652	0.271421	11.0022
0.234756	9.03212	0.0386629	1.71787	0.23192	9.05632	0.336916	12.924	0.278761	10.8885
0.241466	8.96875	0.0407772	1.73979	0.238745	8.99556	0.340584	12.6139	0.286144	10.7845
0.247872	8.89877	0.0428926	1.76008	0.245279	8.92834	0.344489	12.333	0.293565	10.6888
0.25395	8.82188	0.0450086	1.7789	0.251495	8.85431	0.34866	12.0794	0.301016	10.6005
0.259675	8.73794	0.0471247	1.79639	0.257367	8.77327	0.353124	11.8515	0.308491	10.5186
0.265029	8.64702	0.0492405	1.81266	0.262875	8.6852	0.357902	11.6476	0.315984	10.4424
0.270004	8.54945	0.0513556	1.82783	0.268007	8.5903	0.363007	11.4661	0.32349	10.3711
0.274598	8.44574	0.0534699	1.842	0.272757	8.48904	0.368443	11.3051	0.331004	10.3042
0.278818	8.33666	0.0555833	1.85526	0.277129	8.38206	0.374204	11.1628	0.338518	10.2411
0.282681	8.22308	0.0576956	1.86768	0.281136	8.27022	0.380279	11.0372	0.346029	10.1813
0.286208	8.10598	0.0598068	1.87934	0.284798	8.15444	0.386646	10.9265	0.35353	10.1245
0.289426	7.98637	0.0619169	1.89031	0.28814	8.03575	0.393282	10.8289	0.361016	10.0702
0.292362	7.8652	0.0640257	1.90063	0.290812	7.93069	0.40016	10.7427	0.368482	10.0181
0.295047	7.74334	0.0661334	1.91036	0.292928	7.84043	0.407254	10.6664	0.375922	9.96787
0.297508	7.62158	0.0682399	1.91955	0.294575	7.76556	0.414536	10.5985	0.38333	9.91926
0.299773	7.50056	0.0703453	1.92824	0.295817	7.70634	0.42198	10.5378	0.390701	9.87199
0.301864	7.38083	0.0724496	1.93646	0.296697	7.66284	0.429564	10.4833	0.398029	9.82583
0.303805	7.26283	0.0745529	1.94426	0.297246	7.63504	0.437267	10.434	0.405307	9.78054
0.305614	7.14689	0.0766552	1.95167	0.298017	7.59513	0.445069	10.3892	0.412529	9.73592
0.307309	7.03329	0.0787565	1.9587	0.298833	7.55187	0.452954	10.3482	0.419688	9.69178
0.308904	6.92219	0.0808568	1.9654	0.299904	7.49325	0.460907	10.3104	0.426778	9.64793
0.310413	6.81374	0.0829563	1.97178	0.301202	7.41958	0.468914	10.2754	0.433792	9.6042
0.311846	6.70802	0.085055	1.97786	0.302692	7.3313	0.476963	10.2427	0.440722	9.56043
0.313214	6.60507	0.0871528	1.98366	0.304341	7.22907	0.485045	10.2119	0.447562	9.51645
0.314525	6.50492	0.0892499	1.98921	0.306115	7.11379	0.493148	10.1828	0.454302	9.47213
0.315787	6.40754	0.0913462	1.99452	0.30778	7.00089	0.501266	10.155	0.460937	9.42733
0.317005	6.31291	0.0934419	1.9996	0.309349	6.89055	0.509389	10.1284	0.467458	9.38193
0.318186	6.22101	0.0955369	2.00447	0.310835	6.78288	0.517511	10.1028	0.473858	9.33581
0.319334	6.13176	0.0976314	2.00914	0.312248	6.67796	0.525625	10.0779	0.48013	9.28887
0.320454	6.04512	0.0997252	2.01362	0.313599	6.57582	0.533725	10.0536	0.486266	9.24101
0.32155	5.96101	0.101818	2.01792	0.314895	6.47647	0.541805	10.0297	0.49226	9.19217
0.322624	5.87938	0.103911	2.02206	0.316143	6.37989	0.54986	10.0063	0.498106	9.14227
0.32368	5.80014	0.106004	2.02604	0.31735	6.28605	0.557883	9.98301	0.503798	9.09127
0.324721	5.72324	0.108095	2.02987	0.318521	6.19492	0.565871	9.9599	0.509331	9.03915
0.325748	5.64858	0.110187	2.03357	0.319661	6.10643	0.573818	9.93683	0.514702	8.98588
0.326764	5.57611	0.112278	2.03713	0.320774	6.02053	0.581721	9.91372	0.519907	8.93148
0.32777	5.50575	0.114368	2.04056	0.321862	5.93715	0.589573	9.8905	0.524944	8.87595
0.328769	5.43743	0.116458	2.04388	0.322931	5.85622	0.597372	9.86711	0.529813	8.81933
0.329761	5.37108	0.118548	2.04708	0.323983	5.77766	0.605113	9.84349	0.534513	8.76168
0.330749	5.30663	0.120637	2.05018	0.325019	5.70141	0.612791	9.81957	0.539045	8.70306
0.331732	5.24402	0.122726	2.05317	0.326043	5.6274	0.620404	9.79532	0.543411	8.64353
0.332713	5.18319	0.124815	2.05607	0.327056	5.55555	0.627947	9.77068	0.547614	8.58319
0.333692	5.12407	0.126904	2.05887	0.32806	5.48578	0.635416	9.74562	0.551658	8.52211
0.33467	5.0666	0.128992	2.06159	0.329056	5.41804	0.642809	9.7201	0.555545	8.4604
0.335648	5.01072	0.13108	2.06422	0.330047	5.35225	0.650121	9.69409	0.559282	8.39815
0.336626	4.95639	0.133168	2.06677	0.331033	5.28834	0.657349	9.66756	0.562874	8.33546
0.337605	4.90354	0.135255	2.06925	0.332016	5.22625	0.66449	9.64048	0.565888	8.28055
0.338586	4.85213	0.137342	2.07165	0.332996	5.16592	0.67154	9.61284	0.568377	8.23358
0.33957	4.80211	0.139429	2.07399	0.333975	5.10728	0.678497	9.5846	0.57038	8.19466
0.340556	4.75342	0.141516	2.07625	0.334953	5.05027	0.685358	9.55575	0.57193	8.16385
0.341545	4.70603	0.143602	2.07845	0.335931	4.99485	0.69212	9.52628	0.573051	8.14118
0.342538	4.65988	0.145689	2.08059	0.336909	4.94095	0.69878	9.49617	0.57376	8.12666
0.343534	4.61495	0.147775	2.08267	0.337889	4.88853	0.705336	9.46542	0.574769	8.1058
0.344535	4.57118	0.149861	2.0847	0.338871	4.83752	0.711785	9.43401	0.57585	8.08312
0.34554	4.52853	0.151947	2.08667	0.339855	4.78789	0.718126	9.40194	0.577297	8.05228
0.34655	4.48698	0.154032	2.08859	0.340842	4.73958	0.724355	9.36922	0.579088	8.01329
0.347564	4.44648	0.156118	2.09045	0.341832	4.69256	0.730473	9.33584	0.581199	7.9662
0.348584	4.407	0.158203	2.09227	0.342825	4.64676	0.736476	9.3018	0.5836	7.91108
0.349609	4.3685	0.160288	2.09405	0.343823	4.60217	0.742363	9.26711	0.58626	7.84803
0.35064	4.33096	0.162373	2.09578	0.344825	4.55873	0.748134	9.23178	0.588825	7.78526
0.351677	4.29434	0.164458	2.09746	0.345831	4.5164	0.753788	9.19582	0.591299	7.72283
0.352719	4.25862	0.166543	2.09911	0.346843	4.47516	0.759323	9.15924	0.593687	7.6608
0.353767	4.22376	0.168627	2.10071	0.347859	4.43495	0.764741	9.12207	0.595994	7.59921
0.354822	4.18975	0.170712	2.10228	0.34888	4.39576	0.77004	9.08432	0.598225	7.53811
0.355882	4.15654	0.172796	2.10381	0.349907	4.35755	0.775221	9.04602	0.600384	7.47753
0.356949	4.12412	0.17488	2.10531	0.350939	4.32028	0.780284	9.00717	0.602475	7.4175
0.358022	4.09247	0.176964	2.10677	0.351978	4.28392	0.785231	8.96782	0.604503	7.35806
0.359101	4.06155	0.179049	2.10819	0.353022	4.24845	0.790061	8.92799	0.60647	7.29923
0.360187	4.03135	0.181132	2.10959	0.354072	4.21384	0.794777	8.88771	0.608381	7.24103
0.36128	4.00184	0.183216	2.11095	0.355128	4.18006	0.799379	8.847	0.610239	7.18348
0.362378	3.97302	0.1853	2.11228	0.35619	4.14708	0.80387	8.8059	0.612046	7.1266
0.363342	3.94843	0.187384	2.11359	0.357258	4.11489	0.80825	8.76443	0.613807	7.07039
0.364167	3.92785	0.189467	2.11486	0.358333	4.08345	0.812523	8.72263	0.615523	7.01488
0.364851	3.91109	0.191551	2.11611	0.359415	4.05274	0.816159	8.68597	0.617197	6.96006
0.365395	3.89801	0.193634	2.11734	0.360502	4.02274	0.819197	8.65454	0.618833	6.90594
0.365795	3.88848	0.195717	2.11853	0.361597	3.99344	0.821666	8.62846	0.620431	6.85253
0.366052	3.88242	0.1978	2.1197	0.362698	3.9648	0.823591	8.60777	0.621994	6.79982
0.366422	3.87376	0.199884	2.12085	0.363805	3.93681	0.824991	8.59252	0.623525	6.74783
0.366825	3.86443	0.201967	2.12198	0.364919	3.90945	0.825881	8.58275	0.625025	6.69654
0.367374	3.85185	0.20405	2.12308	0.36604	3.8827	0.827151	8.56869	0.626496	6.64596
0.36807	3.83613	0.206132	2.12416	0.367168	3.85655	0.828519	8.55338	0.62794	6.59608
0.368916	3.81741	0.208215	2.12522	0.368302	3.83097	0.83036	8.53253	0.629358	6.54691
0.369913	3.79584	0.210298	2.12626	0.369443	3.80596	0.832657	8.5061	0.630752	6.49843
0.371063	3.77158	0.212381	2.12728	0.37059	3.78148	0.835386	8.47407	0.632124	6.45064
0.37222	3.74785	0.214463	2.12827	0.371744	3.75754	0.838523	8.43641	0.633474	6.40353
0.373384	3.72463	0.216546	2.12925	0.372905	3.73411	0.842039	8.3931	0.634804	6.35711
0.374555	3.7019	0.218628	2.13022	0.374073	3.71118	0.845467	8.34973	0.636115	6.31135
0.375732	3.67965	0.220711	2.13116	0.375247	3.68873	0.84881	8.30632	0.637409	6.26626
0.376916	3.65787	0.222793	2.13209	0.376428	3.66676	0.852071	8.26289	0.638686	6.22183
0.378106	3.63654	0.224876	2.133	0.377616	3.64524	0.855251	8.21947	0.639947	6.17804
0.379303	3.61565	0.226958	2.13389	0.378811	3.62418	0.858354	8.17608	0.641194	6.13489
0.380507	3.5952	0.22904	2.13477	0.380012	3.60355	0.861382	8.13275	0.642426	6.09238
0.381717	3.57516	0.231122	2.13563	0.381219	3.58334	0.864338	8.08949	0.643646	6.05049
0.382934	3.55553	0.233205	2.13647	0.382433	3.56354	0.867223	8.04633	0.644854	6.00921
0.384157	3.5363	0.235287	2.13731	0.383654	3.54415	0.87004	8.00329	0.64605	5.96853
0.385387	3.51745	0.237369	2.13812	0.384881	3.52515	0.872792	7.96038	0.647236	5.92846
0.386624	3.49898	0.239451	2.13893	0.386115	3.50652	0.87548	7.91761	0.648411	5.88897
0.387866	3.48088	0.241533	2.13972	0.387355	3.48827	0.878107	7.87502	0.649577	5.85006
0.389116	3.46313	0.243614	2.14049	0.388602	3.47038	0.880675	7.8326	0.650735	5.81172
0.390371	3.44574	0.245696	2.14126	0.389855	3.45284	0.883186	7.79038	0.651884	5.77394
0.391633	3.42868	0.247778	2.14201	0.391114	3.43564	0.885642	7.74837	0.653026	5.73671
0.392902	3.41195	0.24986	2.14274	0.39238	3.41878	0.888045	7.70657	0.65416	5.70002
0.394176	3.39555	0.251942	2.14347	0.393652	3.40225	0.890397	7.66501	0.655288	5.66387
0.395457	3.37946	0.254023	2.14419	0.39493	3.38603	0.8927	7.62368	0.65641	5.62824
0.396744	3.36367	0.256105	2.14489	0.396214	3.37012	0.894955	7.58261	0.657526	5.59313
0.398037	3.34819	0.258187	2.14558	0.397505	3.35451	0.897164	7.54179	0.658637	5.55852
0.399336	3.333	0.260268	2.14626	0.398802	3.3392	0.899329	7.50124	0.659743	5.52442
0.400641	3.31809	0.26235	2.14693	0.400105	3.32418	0.901452	7.46097	0.660844	5.4908
0.401953	3.30346	0.264431	2.14759	0.401413	3.30943	0.903534	7.42097	0.661941	5.45767
0.40327	3.2891	0.266513	2.14824	0.402728	3.29497	0.905576	7.38126	0.663035	5.42501
0.404593	3.27501	0.268594	2.14888	0.404049	3.28076	0.90758	7.34184	0.664125	5.39282
0.405923	3.26117	0.270676	2.14951	0.405376	3.26682	0.909548	7.30272	0.665211	5.36109
0.407258	3.24759	0.272757	2.15013	0.406709	3.25314	0.911481	7.2639	0.666295	5.3298
0.408599	3.23425	0.274839	2.15074	0.408047	3.2397	0.913379	7.22538	0.667377	5.29896
0.409945	3.22115	0.27692	2.15134	0.409391	3.2265	0.915245	7.18717	0.668456	5.26855
0.411297	3.20829	0.279001	2.15194	0.410741	3.21355	0.91708	7.14927	0.669533	5.23857
0.412656	3.19566	0.281083	2.15252	0.412097	3.20082	0.918884	7.11168	0.670608	5.20901
0.414019	3.18325	0.283164	2.1531	0.413458	3.18832	0.920659	7.07441	0.671681	5.17986
0.415389	3.17107	0.285245	2.15367	0.414825	3.17605	0.922406	7.03745	0.672754	5.15112
0.416763	3.15909	0.287326	2.15422	0.416198	3.16399	0.924126	7.00081	0.673825	5.12278
0.418144	3.14733	0.289407	2.15478	0.417576	3.15214	0.92582	6.96449	0.674895	5.09482
0.41953	3.13577	0.291488	2.15532	0.41896	3.14049	0.927489	6.92849	0.675964	5.06726
0.420921	3.12441	0.29357	2.15586	0.420349	3.12905	0.929135	6.8928	0.677033	5.04007
0.422317	3.11325	0.295651	2.15639	0.421743	3.11781	0.930757	6.85744	0.678101	5.01325
0.423719	3.10227	0.297732	2.15691	0.423143	3.10676	0.932356	6.82239	0.679169	4.98679
0.425127	3.09149	0.299813	2.15742	0.424548	3.0959	0.933934	6.78766	0.680237	4.9607
0.426539	3.08089	0.301894	2.15793	0.425958	3.08522	0.935492	6.75326	0.681305	4.93496
0.427957	3.07046	0.303975	2.15843	0.427374	3.07472	0.93703	6.71916	0.682373	4.90956
0.429379	3.06021	0.306056	2.15892	0.428794	3.0644	0.938548	6.68539	0.683442	4.88451
0.430807	3.05014	0.308137	2.15941	0.43022	3.05426	0.940049	6.65193	0.684511	4.85979
0.43224	3.04023	0.310218	2.15989	0.431651	3.04428	0.941531	6.61879	0.685581	4.8354
0.433678	3.03048	0.312299	2.16036	0.433087	3.03447	0.942997	6.58595	0.686651	4.81133
0.435121	3.0209	0.314379	2.16083	0.434528	3.02482	0.944446	6.55343	0.687722	4.78758
0.436569	3.01147	0.31646	2.16129	0.435974	3.01532	0.94588	6.52122	0.688795	4.76415
0.438022	3.0022	0.318541	2.16175	0.437425	3.00599	0.947298	6.48931	0.689868	4.74102
0.43948	2.99308	0.320622	2.1622	0.43888	2.9968	0.948702	6.45771	0.690942	4.71819
0.440942	2.9841	0.322703	2.16264	0.440341	2.98777	0.950091	6.42642	0.692018	4.69566
0.442409	2.97527	0.324783	2.16308	0.441806	2.97888	0.951468	6.39542	0.693095	4.67343
0.443881	2.96658	0.326864	2.16351	0.443276	2.97013	0.952831	6.36473	0.694174	4.65148
0.445358	2.95803	0.328945	2.16394	0.444751	2.96153	0.954182	6.33433	0.695254	4.62981
0.446839	2.94962	0.331026	2.16436	0.44623	2.95306	0.955521	6.30422	0.696335	4.60842
0.448325	2.94133	0.333106	2.16478	0.447714	2.94472	0.956848	6.27441	0.697418	4.5873
0.449815	2.93318	0.335187	2.16519	0.449203	2.93652	0.958165	6.24489	0.698503	4.56646
0.45131	2.92516	0.337268	2.1656	0.450696	2.92844	0.95947	6.21566	0.69959	4.54587
0.45281	2.91726	0.339348	2.166	0.452193	2.92049	0.960766	6.18671	0.700679	4.52555
0.454314	2.90949	0.341429	2.1664	0.453695	2.91267	0.962051	6.15804	0.701769	4.50548
0.455822	2.90183	0.34351	2.16679	0.455202	2.90496	0.963328	6.12966	0.702862	4.48566
0.457334	2.89429	0.34559	2.16718	0.456713	2.89737	0.964595	6.10155	0.703957	4.46609
0.458851	2.88687	0.347671	2.16756	0.458228	2.88991	0.965853	6.07371	0.705054	4.44677
0.460372	2.87956	0.349751	2.16794	0.459747	2.88255	0.967103	6.04615	0.706153	4.42768
0.461898	2.87236	0.351832	2.16832	0.461271	2.87531	0.968345	6.01886	0.707254	4.40883
0.463427	2.86527	0.353912	2.16868	0.462798	2.86817	0.96958	5.99183	0.708357	4.39021
0.464961	2.85829	0.355993	2.16905	0.464331	2.86115	0.970807	5.96507	0.709463	4.37182
0.466499	2.85141	0.358073	2.16941	0.465867	2.85423	0.972027	5.93857	0.710571	4.35365
0.468041	2.84464	0.360154	2.16977	0.467407	2.84741	0.97324	5.91232	0.711682	4.33571
0.469587	2.83797	0.362235	2.17012	0.468951	2.84069	0.974446	5.88634	0.712795	4.31798
0.471137	2.83139	0.364315	2.17047	0.4705	2.83408	0.975647	5.86061	0.71391	4.30046
0.472691	2.82491	0.366395	2.17082	0.472052	2.82756	0.976841	5.83512	0.715028	4.28316
0.474249	2.81853	0.368476	2.17116	0.473608	2.82114	0.97803	5.80989	0.716148	4.26606
0.47581	2.81224	0.370556	2.17149	0.475168	2.81481	0.979213	5.7849	0.717271	4.24917
0.477376	2.80604	0.372637	2.17183	0.476732	2.80857	0.980391	5.76016	0.718397	4.23247
0.478945	2.79993	0.374717	2.17216	0.4783	2.80243	0.981564	5.73565	0.719525	4.21598
0.480519	2.79391	0.376797	2.17248	0.479872	2.79637	0.982732	5.71138	0.720656	4.19968
0.482096	2.78798	0.378878	2.17281	0.481448	2.7904	0.983896	5.68735	0.72179	4.18357
0.483676	2.78213	0.380958	2.17313	0.483027	2.78452	0.985055	5.66355	0.722926	4.16765
0.485261	2.77636	0.383038	2.17344	0.48461	2.77872	0.98621	5.63998	0.724065	4.15192
0.486849	2.77068	0.385119	2.17375	0.486196	2.773	0.987361	5.61663	0.725207	4.13637
0.488441	2.76508	0.387199	2.17406	0.487786	2.76737	0.988509	5.59351	0.726352	4.121
0.490036	2.75955	0.389279	2.17437	0.48938	2.76181	0.989652	5.57062	0.727499	4.1058
0.491635	2.7541	0.39136	2.17467	0.490977	2.75633	0.990793	5.54794	0.72865	4.09078
0.493237	2.74873	0.39344	2.17497	0.492578	2.75093	0.99193	5.52548	0.729803	4.07594
0.494843	2.74344	0.39552	2.17527	0.494183	2.7456	0.993064	5.50324	0.730959	4.06126
0.496452	2.73822	0.397601	2.17556	0.495791	2.74035	0.994195	5.4812	0.732118	4.04675
0.498065	2.73307	0.399681	2.17585	0.497402	2.73517	0.995323	5.45938	0.733279	4.03241
0.499681	2.72799	0.401761	2.17614	0.499016	2.73007	0.996448	5.43776	0.734444	4.01822
0.5013	2.72298	0.403841	2.17642	0.500634	2.72503	0.997571	5.41635	0.735611	4.0042
0.502923	2.71804	0.405921	2.1767	0.502256	2.72006	0.998692	5.39515	0.736782	3.99033
0.504549	2.71316	0.408002	2.17698	0.50388	2.71516	0.99981	5.37414	0.737955	3.97662
0.506178	2.70836	0.410082	2.17726	0.505508	2.71032	1.00093	5.35333	0.739132	3.96306
0.507811	2.70361	0.412162	2.17753	0.50714	2.70555			0.740311	3.94966
0.509446	2.69893	0.414242	2.1778	0.508774	2.70085			0.741493	3.9364
0.511085	2.69432	0.416322	2.17807	0.510412	2.69621			0.742678	3.92328
0.512727	2.68976	0.418402	2.17833	0.512052	2.69163			0.743866	3.91032
0.514372	2.68527	0.420483	2.17859	0.513696	2.68711			0.745058	3.89749
0.516021	2.68083	0.422563	2.17885	0.515343	2.68265			0.746252	3.8848
0.517672	2.67646	0.424643	2.17911	0.516993	2.67825			0.747449	3.87225
0.519326	2.67214	0.426723	2.17936	0.518646	2.67391			0.748649	3.85984
0.520984	2.66788	0.428803	2.17962	0.520303	2.66962			0.749852	3.84756
0.522644	2.66367	0.430883	2.17987	0.521962	2.66539			0.751058	3.83541
0.524307	2.65952	0.432963	2.18011	0.523624	2.66122			0.752268	3.8234
0.525973	2.65542	0.435043	2.18036	0.525289	2.6571			0.75348	3.81151
0.527643	2.65138	0.437123	2.1806	0.526957	2.65303			0.754695	3.79975
0.529314	2.64738	0.439203	2.18084	0.528627	2.64902			0.755913	3.78811
0.530989	2.64344	0.441283	2.18108	0.530301	2.64505			0.757134	3.7766
0.532667	2.63955	0.443363	2.18131	0.531977	2.64114			0.758359	3.76521
0.534347	2.63571	0.445443	2.18155	0.533657	2.63728			0.759586	3.75394
0.53603	2.63192	0.447523	2.18178	0.535339	2.63347			0.760816	3.74278
0.537716	2.62817	0.449603	2.18201	0.537023	2.6297			0.76205	3.73175
0.539405	2.62447	0.451683	2.18224	0.538711	2.62599			0.763286	3.72082
0.541096	2.62082	0.453763	2.18246	0.540401	2.62231			0.764525	3.71002
0.54279	2.61721	0.455843	2.18268	0.542094	2.61869			0.765768	3.69932
0.544487	2.61365	0.457923	2.18291	0.543789	2.61511			0.767013	3.68873
0.546186	2.61014	0.460003	2.18312	0.545488	2.61158			0.768262	3.67826
0.547888	2.60666	0.462083	2.18334	0.547188	2.60808			0.769513	3.66789
0.549592	2.60323	0.464163	2.18356	0.548892	2.60464			0.770767	3.65762
0.551299	2.59984	0.466243	2.18377	0.550597	2.60123			0.772025	3.64746
0.553008	2.5965	0.468323	2.18398	0.552306	2.59787			0.773285	3.63741
0.55472	2.59319	0.470403	2.18419	0.554017	2.59454			0.774549	3.62745
0.556435	2.58992	0.472483	2.1844	0.55573	2.59126			0.775815	3.6176
0.558151	2.5867	0.474563	2.1846	0.557446	2.58802			0.777085	3.60784
0.559871	2.58351	0.476643	2.18481	0.559164	2.58482			0.778357	3.59819
0.561592	2.58036	0.478723	2.18501	0.560885	2.58165			0.779632	3.58863
0.563316	2.57725	0.480802	2.18521	0.562608	2.57852			0.780911	3.57916
