Sym0		Asym0		Sym1		Sym2		Asym1	
473  Points		491  Points		474  Points		213  Points		392  Points	
Freq (MHz)	Vgr (m/ms)	Freq (MHz)	Vgr (m/ms)	Freq (MHz)	Vgr (m/ms)	Freq (MHz)	Vgr (m/ms)	Freq (MHz)	Vgr (m/ms)
0.00808678	9.28472	0.000467796	0.614054	0.00292069	9.28614	0.279518	0.167109	0.139755	0.317288
0.0167373	9.28275	0.00103991	0.726984	0.0115725	9.28478	0.279674	0.268316	0.14005	0.610089
0.0253842	9.2777	0.00182245	0.94434	0.0202219	9.28099	0.280018	0.469542	0.140891	1.18952
0.0340253	9.27046	0.00279958	1.1435	0.0288666	9.27502	0.280549	0.667724	0.142267	1.75307
0.0426586	9.26095	0.00395325	1.32262	0.0375048	9.26689	0.281262	0.861571	0.144158	2.29429
0.051282	9.24912	0.00526414	1.48097	0.0461345	9.25648	0.282154	1.04983	0.146542	2.80825
0.0598933	9.23475	0.00671287	1.61889	0.0547533	9.24365	0.283219	1.23123	0.149391	3.29137
0.06849	9.21767	0.00828076	1.7374	0.063359	9.22824	0.284449	1.40461	0.152675	3.74156
0.0770694	9.1977	0.00995034	1.83806	0.0719491	9.21002	0.285836	1.56887	0.156363	4.15818
0.0856289	9.17455	0.0117058	1.92261	0.0805209	9.18875	0.287372	1.72308	0.160423	4.54142
0.0941652	9.14788	0.0135329	1.99299	0.0890713	9.16422	0.289047	1.86632	0.164825	4.89224
0.102675	9.11731	0.0154195	2.05106	0.0975974	9.13604	0.29085	1.9979	0.16954	5.21229
0.111154	9.08239	0.0173548	2.09857	0.106095	9.10377	0.29277	2.11735	0.174538	5.5034
0.119599	9.04258	0.0193299	2.13719	0.114561	9.06698	0.294795	2.2245	0.179795	5.76759
0.128004	8.99732	0.0213373	2.16844	0.122991	9.02506	0.296915	2.31948	0.185285	6.00696
0.136364	8.94582	0.0231077	2.19065	0.131378	8.97738	0.299117	2.40281	0.190988	6.22358
0.144674	8.88722	0.0246298	2.20631	0.139719	8.92313	0.301392	2.47557	0.196882	6.41935
0.152925	8.82049	0.0258959	2.21737	0.148006	8.86135	0.30373	2.53927	0.20295	6.59615
0.16111	8.74444	0.0269012	2.225	0.156231	8.79104	0.306124	2.596	0.209173	6.75565
0.169219	8.65767	0.0276424	2.22987	0.164387	8.71085	0.308568	2.64838	0.215538	6.89939
0.177242	8.55861	0.0281176	2.23283	0.172463	8.61931	0.311059	2.69967	0.22203	7.02875
0.185167	8.4454	0.0288018	2.2369	0.180448	8.51481	0.313598	2.75353	0.228635	7.145
0.192979	8.31593	0.0295468	2.2408	0.188329	8.39533	0.31619	2.81395	0.235344	7.24933
0.200663	8.16797	0.030562	2.24552	0.196092	8.25868	0.318842	2.88527	0.242144	7.34264
0.2082	7.99897	0.0318488	2.25072	0.203718	8.10256	0.321566	2.97197	0.249026	7.42583
0.215568	7.80643	0.0334085	2.25588	0.21119	7.92437	0.32438	3.07848	0.255981	7.49971
0.222746	7.5879	0.0352423	2.26063	0.218485	7.72164	0.327303	3.20904	0.263001	7.565
0.229707	7.34128	0.0373507	2.26469	0.225578	7.49203	0.330359	3.36725	0.270077	7.62227
0.236426	7.06526	0.0394623	2.26753	0.232445	7.23365	0.333577	3.55615	0.277204	7.67199
0.242873	6.75962	0.041576	2.26935	0.239058	6.94561	0.336986	3.77751	0.284373	7.71466
0.249021	6.4257	0.043691	2.27044	0.245388	6.62832	0.340616	4.03141	0.291579	7.75071
0.254846	6.06695	0.0458067	2.27088	0.251409	6.2839	0.344498	4.31611	0.298816	7.7804
0.260327	5.68878	0.0479225	2.27084	0.257097	5.91654	0.348659	4.62764	0.306077	7.80404
0.265447	5.29843	0.0500381	2.27049	0.262433	5.5325	0.353121	4.9597	0.313358	7.82181
0.2702	4.90452	0.0521533	2.2698	0.267406	5.13964	0.3579	5.30426	0.320652	7.83392
0.274586	4.51608	0.0542677	2.26895	0.272011	4.74686	0.363005	5.6523	0.327956	7.84047
0.278615	4.14146	0.0563812	2.26793	0.276251	4.36302	0.368433	5.99461	0.335262	7.84156
0.282303	3.78765	0.0584937	2.2668	0.280141	3.99607	0.374175	6.32306	0.342567	7.83731
0.285673	3.45972	0.0606052	2.26569	0.283698	3.65159	0.380215	6.63104	0.349866	7.82755
0.28875	3.16055	0.0627156	2.26447	0.286545	3.37295	0.386531	6.91395	0.357153	7.81242
0.291562	2.89128	0.0648248	2.26324	0.2888	3.15293	0.393099	7.16931	0.364424	7.79184
0.294137	2.65151	0.0669329	2.26204	0.290555	2.98355	0.399891	7.39636	0.371672	7.76562
0.296503	2.43966	0.0690398	2.26082	0.291876	2.85763	0.406881	7.59573	0.378894	7.73376
0.298683	2.25363	0.0711457	2.25962	0.292811	2.76944	0.414044	7.76888	0.386083	7.69604
0.300702	2.09096	0.0732504	2.25851	0.293395	2.71525	0.421357	7.91787	0.393235	7.65232
0.30258	1.94911	0.0753541	2.25744	0.294215	2.64027	0.428798	8.04489	0.400343	7.60245
0.304334	1.82565	0.0774569	2.25636	0.29508	2.56222	0.436348	8.15224	0.407401	7.54621
0.305982	1.71826	0.0795586	2.2553	0.296216	2.46175	0.443989	8.24212	0.414404	7.48332
0.307536	1.62493	0.0816594	2.25434	0.29759	2.34344	0.451706	8.31641	0.421345	7.41356
0.309009	1.54379	0.0837593	2.25341	0.299164	2.21268	0.459486	8.3769	0.428219	7.33682
0.310413	1.47322	0.0858584	2.25251	0.300902	2.07498	0.467316	8.42514	0.435017	7.25283
0.311755	1.41192	0.0879566	2.2517	0.302766	1.93559	0.475185	8.46243	0.441733	7.16141
0.313044	1.3586	0.0900542	2.25088	0.304508	1.81389	0.483085	8.48985	0.448361	7.06243
0.314286	1.31223	0.0921509	2.25008	0.306146	1.70804	0.491005	8.50837	0.454893	6.95579
0.315489	1.27195	0.0942469	2.24938	0.307691	1.61603	0.498939	8.51882	0.461323	6.84146
0.316656	1.237	0.0963424	2.2487	0.309157	1.53605	0.506879	8.52184	0.467642	6.71946
0.317794	1.20674	0.0984371	2.248	0.310553	1.4665	0.514819	8.51799	0.473844	6.58992
0.318905	1.18056	0.100531	2.24739	0.31189	1.40609	0.522751	8.50773	0.479921	6.45316
0.319994	1.15794	0.102625	2.24683	0.313173	1.35352	0.530672	8.49147	0.485868	6.30943
0.321063	1.13847	0.104718	2.24625	0.314412	1.30782	0.538574	8.46949	0.491678	6.15921
0.322115	1.12182	0.106811	2.24567	0.31561	1.26816	0.546454	8.44208	0.497345	6.00315
0.323153	1.10769	0.108903	2.24516	0.316775	1.23372	0.554305	8.40945	0.502865	5.8419
0.324179	1.09577	0.110994	2.24473	0.317909	1.20383	0.562124	8.37188	0.508231	5.67628
0.325195	1.08577	0.113085	2.24429	0.319018	1.17804	0.569905	8.32948	0.513442	5.50721
0.326202	1.07757	0.115176	2.24381	0.320104	1.15577	0.577645	8.28232	0.518493	5.33562
0.327203	1.0709	0.117266	2.24339	0.321172	1.13662	0.585338	8.23071	0.523384	5.16251
0.328198	1.06563	0.119356	2.243	0.322222	1.1203	0.592982	8.17465	0.528113	4.98891
0.329188	1.06168	0.121446	2.24262	0.323259	1.10636	0.600571	8.11424	0.53268	4.81581
0.330176	1.05882	0.123535	2.24228	0.324284	1.09463	0.608102	8.04968	0.537087	4.64423
0.331161	1.05693	0.125624	2.24193	0.325299	1.08488	0.615571	7.98105	0.541334	4.47501
0.332146	1.05599	0.127713	2.24161	0.326306	1.07682	0.622974	7.90847	0.545425	4.30899
0.333129	1.05594	0.129801	2.2413	0.327305	1.0703	0.630307	7.83201	0.549364	4.14686
0.334113	1.05657	0.131889	2.241	0.3283	1.06517	0.637568	7.75181	0.553153	3.98909
0.335098	1.05783	0.133977	2.2407	0.32929	1.06132	0.644752	7.66795	0.556336	3.85564
0.336084	1.05978	0.136065	2.24044	0.330278	1.05856	0.651856	7.58057	0.558966	3.74507
0.337073	1.06227	0.138152	2.24017	0.331263	1.05681	0.658877	7.48983	0.561084	3.65596
0.338064	1.06522	0.140239	2.23992	0.332247	1.05597	0.665813	7.3958	0.562723	3.58699
0.339058	1.06861	0.142326	2.23972	0.33323	1.05592	0.672659	7.29864	0.563908	3.53712
0.340055	1.07248	0.144412	2.23948	0.334214	1.05666	0.679413	7.19842	0.564658	3.50578
0.341056	1.07669	0.146499	2.23925	0.335199	1.05806	0.686072	7.09533	0.565724	3.4612
0.342061	1.08122	0.148585	2.23902	0.336186	1.06	0.692634	6.98957	0.566868	3.41342
0.343071	1.08605	0.150671	2.2388	0.337175	1.06251	0.699097	6.88124	0.568398	3.34988
0.344085	1.09116	0.152757	2.23865	0.338166	1.06556	0.705457	6.77049	0.570292	3.27145
0.345104	1.09655	0.154842	2.23847	0.33916	1.06903	0.711713	6.65753	0.572524	3.17966
0.346128	1.10213	0.156928	2.23826	0.340158	1.07288	0.717862	6.54258	0.575063	3.07619
0.347158	1.10794	0.159013	2.23813	0.341159	1.07712	0.723904	6.42584	0.577875	2.96288
0.348193	1.11391	0.161098	2.23795	0.342165	1.08169	0.729836	6.30757	0.580584	2.85533
0.349233	1.12001	0.163183	2.23775	0.343175	1.08658	0.735657	6.18793	0.583195	2.75343
0.35028	1.12634	0.165268	2.23761	0.34419	1.09169	0.741367	6.06714	0.585715	2.657
0.351332	1.13277	0.167353	2.23751	0.345209	1.09711	0.746963	5.9456	0.588146	2.5659
0.352391	1.13927	0.169438	2.23734	0.346234	1.10275	0.752446	5.82345	0.590496	2.47985
0.353455	1.14597	0.171522	2.23719	0.347264	1.10853	0.757814	5.70096	0.592767	2.39863
0.354526	1.1527	0.173606	2.23708	0.3483	1.1145	0.763069	5.57851	0.594965	2.32205
0.355603	1.15949	0.17569	2.23695	0.349341	1.12067	0.768209	5.45621	0.597094	2.24989
0.356687	1.16641	0.177775	2.23681	0.350388	1.12701	0.773236	5.33438	0.599158	2.18188
0.357777	1.17336	0.179859	2.23667	0.351441	1.13341	0.778149	5.21331	0.60116	2.11781
0.358873	1.18039	0.181942	2.23656	0.3525	1.13997	0.78295	5.09321	0.603104	2.05753
0.359976	1.18748	0.184026	2.23647	0.353565	1.14666	0.78764	4.97428	0.604994	2.00074
0.360943	1.19364	0.18611	2.23639	0.354637	1.15338	0.792219	4.85676	0.606832	1.94729
0.361771	1.19891	0.188193	2.23627	0.355714	1.16021	0.79669	4.74082	0.608622	1.89698
0.362458	1.20328	0.190277	2.23614	0.356799	1.16711	0.800498	4.64115	0.610367	1.84964
0.363003	1.20675	0.19236	2.23604	0.357889	1.17407	0.803681	4.55737	0.612069	1.80509
0.363405	1.20946	0.194443	2.23595	0.358986	1.18111	0.80627	4.48899	0.613731	1.76315
0.363663	1.21105	0.196527	2.23587	0.36009	1.18818	0.808289	4.43535	0.615355	1.72369
0.364034	1.21333	0.19861	2.23579	0.3612	1.1953	0.809758	4.39631	0.616943	1.68656
0.364438	1.21596	0.200693	2.23572	0.362317	1.20242	0.810692	4.37152	0.618497	1.65163
0.364989	1.21935	0.202776	2.23561	0.363441	1.20956	0.812025	4.33594	0.62002	1.61875
0.365689	1.22379	0.204859	2.23552	0.364571	1.21676	0.813461	4.29764	0.621514	1.58784
0.366537	1.22919	0.206941	2.23543	0.365708	1.22395	0.815394	4.24621	0.622979	1.55873
0.367538	1.23547	0.209024	2.23536	0.366852	1.23113	0.817806	4.18179	0.624418	1.53131
0.368692	1.24263	0.211107	2.23532	0.368002	1.23835	0.820674	4.10508	0.625832	1.50556
0.369853	1.24983	0.213189	2.23526	0.369159	1.24555	0.82397	4.01691	0.627224	1.48133
0.371021	1.25706	0.215272	2.23516	0.370323	1.25273	0.827666	3.91802	0.628593	1.45852
0.372196	1.26426	0.217354	2.23507	0.371494	1.25995	0.831271	3.82159	0.629941	1.43709
0.373377	1.27142	0.219437	2.23503	0.372671	1.26715	0.834787	3.72771	0.631271	1.41692
0.374565	1.27855	0.221519	2.23493	0.373855	1.2743	0.838217	3.63649	0.632582	1.39794
0.37576	1.2857	0.223601	2.23489	0.375046	1.28143	0.841563	3.54789	0.633876	1.38013
0.376961	1.29283	0.225684	2.23486	0.376243	1.28858	0.844828	3.46184	0.635153	1.36343
0.378169	1.29995	0.227766	2.23474	0.377447	1.29571	0.848014	3.37839	0.636416	1.34772
0.379383	1.30702	0.229848	2.23468	0.378657	1.30279	0.851124	3.29748	0.637665	1.33294
0.380604	1.31404	0.23193	2.23469	0.379874	1.30981	0.854159	3.21912	0.6389	1.31907
0.381832	1.32102	0.234012	2.23462	0.381098	1.31684	0.857122	3.14328	0.640123	1.30605
0.383066	1.32799	0.236094	2.23454	0.382328	1.32386	0.860016	3.06988	0.641334	1.29387
0.384306	1.33496	0.238176	2.23451	0.383565	1.33082	0.862842	2.9989	0.642534	1.28247
0.385553	1.34189	0.240257	2.23442	0.384808	1.33774	0.865604	2.93027	0.643723	1.27175
0.386807	1.34875	0.242339	2.23437	0.386057	1.34464	0.868303	2.86394	0.644903	1.26174
0.388066	1.35559	0.244421	2.23435	0.387313	1.3515	0.870941	2.79991	0.646074	1.25241
0.389333	1.36238	0.246503	2.2343	0.388576	1.35834	0.87352	2.73805	0.647237	1.24369
0.390605	1.36911	0.248584	2.23424	0.389845	1.36512	0.876043	2.67833	0.648392	1.23551
0.391884	1.37584	0.250666	2.23421	0.39112	1.37185	0.878511	2.62075	0.649539	1.22788
0.393169	1.38254	0.252748	2.23416	0.392401	1.37854	0.880926	2.56516	0.65068	1.2208
0.39446	1.38915	0.254829	2.2341	0.393688	1.38519	0.883291	2.5115	0.651814	1.21425
0.395757	1.39575	0.256911	2.2341	0.394982	1.3918	0.885606	2.45977	0.652943	1.20816
0.397061	1.40227	0.258992	2.23403	0.396282	1.39837	0.887874	2.40996	0.654065	1.20252
0.39837	1.40876	0.261073	2.23396	0.397588	1.40492	0.890097	2.36191	0.655183	1.19728
0.399686	1.41526	0.263155	2.23396	0.3989	1.41141	0.892275	2.31554	0.656296	1.19246
0.401008	1.42166	0.265236	2.23392	0.400218	1.41781	0.894412	2.27094	0.657405	1.18804
0.402335	1.42797	0.267317	2.23387	0.401542	1.42419	0.896507	2.22791	0.65851	1.18396
0.403668	1.43431	0.269399	2.23384	0.402872	1.43057	0.898563	2.18643	0.659612	1.18024
0.405008	1.4406	0.27148	2.23379	0.404207	1.43687	0.900581	2.14654	0.660709	1.17687
0.406353	1.44682	0.273561	2.23377	0.405549	1.4431	0.902563	2.1081	0.661804	1.17384
0.407704	1.453	0.275642	2.23375	0.406896	1.44929	0.904509	2.07105	0.662897	1.17104
0.40906	1.4591	0.277724	2.23371	0.40825	1.45546	0.906422	2.03535	0.663987	1.16854
0.410423	1.46518	0.279805	2.23365	0.409608	1.46158	0.908302	2.00098	0.665074	1.16637
0.411791	1.47123	0.281886	2.23362	0.410973	1.46761	0.910151	1.96794	0.66616	1.16441
0.413164	1.47718	0.283967	2.23361	0.412343	1.47363	0.911969	1.93608	0.667244	1.1627
0.414543	1.48313	0.286048	2.23356	0.413719	1.4796	0.913758	1.90539	0.668327	1.16129
0.415928	1.48903	0.288129	2.23354	0.4151	1.48549	0.91552	1.87587	0.669408	1.16004
0.417318	1.49483	0.29021	2.23349	0.416487	1.49136	0.917254	1.84745	0.670488	1.15897
0.418713	1.50063	0.292291	2.23347	0.417879	1.49718	0.918962	1.82006	0.671568	1.15818
0.420114	1.50639	0.294372	2.23346	0.419277	1.50299	0.920645	1.79369	0.672646	1.15757
0.42152	1.51208	0.296452	2.23342	0.42068	1.50871	0.922304	1.76835	0.673725	1.15715
0.422932	1.51771	0.298533	2.2334	0.422088	1.51436	0.92394	1.74392	0.674803	1.15691
0.424348	1.52331	0.300614	2.23335	0.423502	1.51996	0.925554	1.72043	0.67588	1.15679
0.42577	1.5289	0.302695	2.23332	0.424921	1.52555	0.927146	1.69784	0.676958	1.15687
0.427197	1.53436	0.304776	2.23331	0.426344	1.53109	0.928718	1.67604	0.678036	1.1571
0.428629	1.5398	0.306856	2.23327	0.427774	1.53657	0.930269	1.65507	0.679114	1.15747
0.430066	1.54523	0.308937	2.23325	0.429208	1.54202	0.931802	1.63495	0.680193	1.15802
0.431509	1.55062	0.311018	2.23324	0.430647	1.54742	0.933316	1.61552	0.681272	1.15866
0.432956	1.55592	0.313099	2.2332	0.432091	1.55275	0.934812	1.59683	0.682352	1.15942
0.434408	1.56117	0.315179	2.23318	0.43354	1.55802	0.936291	1.57888	0.683432	1.16035
0.435865	1.56639	0.31726	2.23316	0.434994	1.56329	0.937754	1.56159	0.684514	1.16136
0.437327	1.57156	0.31934	2.23316	0.436453	1.56849	0.939201	1.54496	0.685597	1.16249
0.438793	1.57672	0.321421	2.23312	0.437917	1.57362	0.940633	1.52896	0.68668	1.16375
0.440265	1.58178	0.323502	2.23306	0.439386	1.57874	0.94205	1.51356	0.687765	1.16508
0.441741	1.5868	0.325582	2.23307	0.440859	1.5838	0.943453	1.49875	0.688851	1.16655
0.443222	1.59181	0.327663	2.23304	0.442337	1.58881	0.944843	1.48454	0.689939	1.16809
0.444707	1.59676	0.329743	2.23302	0.443819	1.59381	0.94622	1.47084	0.691028	1.16966
0.446197	1.60166	0.331824	2.23302	0.445307	1.59873	0.947584	1.45762	0.692118	1.1714
0.447691	1.60648	0.333904	2.23298	0.446799	1.6036	0.948936	1.44497	0.693211	1.17319
0.44919	1.61131	0.335985	2.23295	0.448295	1.60846	0.950276	1.43282	0.694304	1.17503
0.450694	1.61611	0.338065	2.23294	0.449796	1.61327	0.951606	1.4211	0.6954	1.17702
0.452202	1.62081	0.340145	2.23294	0.451301	1.61801	0.952924	1.40986	0.696498	1.17903
0.453714	1.62547	0.342226	2.2329	0.452811	1.6227	0.954233	1.39904	0.697597	1.18111
0.455231	1.63011	0.344306	2.23288	0.454325	1.62734	0.955531	1.38865	0.698699	1.18324
0.456752	1.63474	0.346387	2.23287	0.455843	1.63197	0.95682	1.37866	0.699802	1.18544
0.458277	1.63928	0.348467	2.23283	0.457366	1.63656	0.9581	1.36905	0.700907	1.18772
0.459806	1.64379	0.350547	2.23285	0.458893	1.64112	0.959371	1.35988	0.702015	1.19002
0.46134	1.64828	0.352628	2.23282	0.460424	1.6456	0.960634	1.35105	0.703125	1.19239
0.462878	1.65272	0.354708	2.23277	0.461959	1.65004	0.961889	1.34254	0.704237	1.19485
0.46442	1.6571	0.356788	2.23278	0.463498	1.65449	0.963136	1.3344	0.705351	1.19733
0.465966	1.66141	0.358868	2.23278	0.465042	1.65884	0.964376	1.32659	0.706468	1.19981
0.467515	1.66573	0.360949	2.23275	0.46659	1.66318	0.965608	1.3191	0.707587	1.20241
0.469069	1.67002	0.363029	2.2327	0.468141	1.66747	0.966834	1.31191	0.708709	1.20502
0.470627	1.67421	0.365109	2.23271	0.469697	1.6717	0.968053	1.30499	0.709833	1.20765
0.472189	1.67839	0.367189	2.23271	0.471256	1.67594	0.969265	1.29841	0.710959	1.21035
0.473755	1.68257	0.369269	2.23268	0.47282	1.68008	0.970472	1.29208	0.712088	1.21306
0.475324	1.68671	0.37135	2.23266	0.474387	1.68423	0.971673	1.28603	0.713219	1.21581
0.476898	1.69076	0.37343	2.23265	0.475958	1.68832	0.972868	1.28025	0.714353	1.21861
0.478475	1.69476	0.37551	2.23261	0.477533	1.69235	0.974058	1.27465	0.71549	1.2214
0.480056	1.69877	0.37759	2.23259	0.479111	1.69641	0.975244	1.26936	0.716629	1.22426
0.48164	1.70276	0.37967	2.23262	0.480694	1.70038	0.976424	1.2643	0.717771	1.22716
0.483229	1.70666	0.38175	2.23259	0.48228	1.70435	0.977599	1.25946	0.718916	1.23007
0.484821	1.71055	0.38383	2.23258	0.48387	1.70823	0.978771	1.25485	0.720064	1.23299
0.486416	1.71443	0.38591	2.23257	0.485463	1.71208	0.979938	1.25042	0.721214	1.23592
0.488015	1.71821	0.38799	2.23253	0.48706	1.71594	0.981101	1.24622	0.722366	1.23892
0.489618	1.72196	0.39007	2.23251	0.488661	1.71974	0.98226	1.24222	0.723522	1.24192
0.491224	1.72574	0.39215	2.23251	0.490265	1.72351	0.983415	1.23835	0.724681	1.24492
0.492834	1.72946	0.39423	2.2325	0.491872	1.72723	0.984567	1.23473	0.725842	1.24796
0.494447	1.73312	0.39631	2.2325	0.493483	1.73091	0.985716	1.23131	0.727006	1.25102
0.496063	1.73674	0.39839	2.23246	0.495097	1.73459	0.986862	1.22799	0.728173	1.25408
0.497683	1.74035	0.40047	2.23244	0.496715	1.73822	0.988004	1.2249	0.729343	1.25716
0.499306	1.74394	0.40255	2.23247	0.498336	1.7418	0.989144	1.22197	0.730516	1.26027
0.500932	1.74746	0.40463	2.23245	0.499961	1.74534	0.990281	1.21914	0.731691	1.26336
0.502562	1.75094	0.40671	2.2324	0.501589	1.74887	0.991416	1.21652	0.73287	1.26648
0.504195	1.75444	0.40879	2.23241	0.50322	1.75239	0.992548	1.21401	0.734051	1.26965
0.505831	1.75788	0.41087	2.23242	0.504854	1.75584	0.993678	1.21165	0.735236	1.27278
0.507471	1.76128	0.41295	2.23238	0.506492	1.75925	0.994806	1.20948	0.736423	1.27595
0.509113	1.76466	0.41503	2.23237	0.508132	1.76267	0.995932	1.20741	0.737613	1.27911
0.510759	1.768	0.41711	2.23236	0.509776	1.76603	0.997056	1.20546	0.738806	1.28227
0.512408	1.77132	0.41919	2.23235	0.511423	1.76932	0.998178	1.2036	0.740003	1.28549
0.51406	1.77463	0.42127	2.23231	0.513073	1.77262	0.999299	1.2019	0.741202	1.28868
0.515715	1.77786	0.423349	2.23229	0.514726	1.77591	1.00042	1.20112	0.742404	1.29185
0.517373	1.78105	0.425429	2.23232	0.516382	1.77917			0.743609	1.29504
0.519033	1.78429	0.427509	2.2323	0.518041	1.78238			0.744817	1.29825
0.520697	1.78745	0.429589	2.23229	0.519704	1.78555			0.746028	1.30147
0.522364	1.79057	0.431669	2.23228	0.521369	1.78872			0.747242	1.30469
0.524034	1.79366	0.433748	2.23228	0.523037	1.7918			0.748459	1.30791
0.525706	1.79675	0.435828	2.23228	0.524707	1.79491			0.749679	1.31113
0.527382	1.79979	0.437908	2.23224	0.526381	1.79797			0.750902	1.31435
0.52906	1.80278	0.439988	2.23222	0.528058	1.80101			0.752129	1.31758
0.530741	1.80581	0.442068	2.23221	0.529737	1.80402			0.753358	1.3208
0.532425	1.80879	0.444147	2.23221	0.531419	1.807			0.75459	1.32406
0.534112	1.81168	0.446227	2.2322	0.533104	1.80995			0.755825	1.3273
0.535801	1.81458	0.448307	2.2322	0.534792	1.81285			0.757063	1.33049
0.537493	1.8175	0.450386	2.2322	0.536482	1.8158			0.758304	1.3337
0.539188	1.82035	0.452466	2.23217	0.538176	1.81867			0.759548	1.33692
0.540885	1.8232	0.454546	2.23215	0.539871	1.82146			0.760795	1.34017
0.542585	1.82598	0.456626	2.23217	0.54157	1.82429			0.762045	1.34341
0.544288	1.82873	0.458705	2.23215	0.543271	1.82712			0.763299	1.34661
0.545993	1.83153	0.460785	2.23214	0.544974	1.8299			0.764555	1.34982
0.5477	1.83425	0.462865	2.23213	0.54668	1.83261			0.765814	1.35303
0.549411	1.83693	0.464944	2.2321	0.548389	1.83531			0.767076	1.35625
0.551123	1.83962	0.467024	2.23211	0.5501	1.83802			0.768341	1.35947
0.552839	1.84229	0.469104	2.23212	0.551814	1.84069			0.769609	1.36266
0.554556	1.8449	0.471183	2.23209	0.55353	1.84335			0.77088	1.36586
0.556276	1.84749	0.473263	2.23207	0.555249	1.84596			0.772154	1.36907
0.557999	1.8501	0.475342	2.23206	0.55697	1.84855			0.773431	1.37226
0.559724	1.85266	0.477422	2.23206	0.558694	1.85112			0.774711	1.37542
