Sym0		Asym0		Sym1		Sym2		Asym1	
473  Points		491  Points		473  Points		208  Points		390  Points	
Freq (MHz)	Vph (m/ms)	Freq (MHz)	Vph (m/ms)	Freq (MHz)	Vph (m/ms)	Freq (MHz)	Vph (m/ms)	Freq (MHz)	Vph (m/ms)
0.000562576	9.52164	0.000276034	0.194817	0.00558087	9.52142	0.27953	649.32	0.13993	192.397
0.00943337	9.52117	0.000752319	0.320329	0.0144507	9.52058	0.279725	205.349	0.140666	84.7901
0.018302	9.52001	0.00145025	0.442114	0.023317	9.51899	0.28012	122.116	0.141966	54.7985
0.0271662	9.51806	0.00235457	0.559018	0.0321779	9.51664	0.280714	87.0274	0.143811	40.8278
0.0360238	9.51536	0.00344698	0.670141	0.0410309	9.51348	0.281502	67.7131	0.146178	32.8188
0.0448728	9.51186	0.00470762	0.77487	0.0498738	9.50953	0.282479	55.5082	0.149037	27.6723
0.0537106	9.50756	0.00611607	0.872845	0.0587042	9.50474	0.283639	47.111	0.152357	24.1168
0.0625347	9.50238	0.0076523	0.963918	0.0675195	9.49907	0.284974	40.9896	0.156104	21.5341
0.0713425	9.49632	0.00929764	1.04816	0.0763167	9.49249	0.286475	36.336	0.160246	19.5879
0.0801311	9.48933	0.0110348	1.12575	0.085093	9.48492	0.288133	32.6839	0.164747	18.0792
0.0888972	9.48132	0.0128486	1.19702	0.0938449	9.47632	0.289936	29.7448	0.169578	16.8831
0.0976374	9.47225	0.0147257	1.26233	0.102569	9.46662	0.291872	27.331	0.174707	15.9173
0.106348	9.46203	0.0166546	1.32208	0.11126	9.45571	0.29393	25.3152	0.180107	15.1254
0.115024	9.45058	0.0186254	1.37671	0.119915	9.44351	0.296098	23.6075	0.185752	14.4674
0.123661	9.43777	0.0206302	1.42665	0.128528	9.42989	0.298362	22.1432	0.191619	13.9146
0.132254	9.4235	0.0223994	1.46664	0.137093	9.41472	0.300712	20.8742	0.197684	13.4454
0.140796	9.40762	0.0239209	1.49837	0.145603	9.39786	0.303135	19.7641	0.20393	13.0437
0.149281	9.38996	0.0251868	1.52306	0.154051	9.37911	0.305623	18.7852	0.210338	12.6969
0.157699	9.37033	0.0261921	1.54166	0.162428	9.35828	0.308167	17.9156	0.21689	12.3953
0.166042	9.34852	0.0269333	1.55484	0.170724	9.33513	0.310763	17.1383	0.223574	12.1313
0.174299	9.32428	0.0274086	1.56306	0.178927	9.30938	0.31341	16.4395	0.230375	11.8988
0.182457	9.29731	0.0280929	1.5746	0.187023	9.28073	0.316109	15.8086	0.23728	11.6928
0.190502	9.2673	0.028838	1.58677	0.194997	9.24883	0.318867	15.2366	0.244279	11.5093
0.198418	9.23387	0.0298535	1.60273	0.202832	9.21329	0.321695	14.7165	0.251362	11.3449
0.206186	9.19661	0.0311406	1.622	0.210507	9.17367	0.324608	14.2427	0.258518	11.1971
0.213784	9.15507	0.0327008	1.64399	0.217999	9.12949	0.327625	13.8105	0.265739	11.0634
0.221189	9.10876	0.0345351	1.66812	0.225283	9.08026	0.330772	13.4163	0.273017	10.942
0.228375	9.05717	0.0366441	1.69377	0.232332	9.02545	0.334077	13.0569	0.280344	10.8312
0.235313	8.99978	0.0387562	1.71743	0.239117	8.96457	0.33757	12.7299	0.287714	10.7297
0.241974	8.93612	0.0408703	1.73931	0.245609	8.89716	0.341283	12.4331	0.295118	10.6363
0.248329	8.86576	0.0429857	1.75956	0.251779	8.82289	0.345249	12.1646	0.302553	10.5499
0.254352	8.78843	0.0451017	1.77836	0.257602	8.74154	0.349497	11.9229	0.31001	10.4698
0.260017	8.704	0.0472176	1.79581	0.263058	8.65312	0.354052	11.7062	0.317484	10.3951
0.26531	8.61256	0.0493333	1.81207	0.268135	8.55785	0.358931	11.5129	0.324969	10.3253
0.270221	8.51445	0.0514484	1.82723	0.272829	8.4562	0.364145	11.3412	0.332461	10.2596
0.274749	8.41024	0.0535628	1.84139	0.277144	8.34886	0.369693	11.1893	0.339953	10.1976
0.278904	8.30068	0.0556761	1.85464	0.281095	8.23669	0.375566	11.0553	0.347441	10.1388
0.282702	8.18671	0.0577884	1.86705	0.284701	8.12066	0.381747	10.9373	0.354918	10.0829
0.286166	8.06933	0.0598996	1.87871	0.287989	8.00179	0.388214	10.8334	0.362379	10.0294
0.289324	7.94952	0.0620096	1.88967	0.290616	7.89664	0.394941	10.7418	0.369819	9.97801
0.292205	7.82827	0.0641184	1.89999	0.292696	7.80636	0.401901	10.661	0.377232	9.92845
0.294837	7.70644	0.0662261	1.90972	0.294315	7.73151	0.409065	10.5893	0.384613	9.88042
0.29725	7.5848	0.0683327	1.91891	0.295534	7.67233	0.416407	10.5255	0.391956	9.83369
0.29947	7.46399	0.0704381	1.92761	0.296398	7.62887	0.423903	10.4685	0.399254	9.78799
0.301521	7.34456	0.0725424	1.93583	0.296938	7.6011	0.43153	10.4171	0.406502	9.74313
0.303425	7.22692	0.0746457	1.94364	0.297696	7.56124	0.439268	10.3707	0.413693	9.6989
0.3052	7.1114	0.076748	1.95104	0.298497	7.51804	0.447098	10.3283	0.42082	9.6551
0.306865	6.99825	0.0788493	1.95809	0.299549	7.45953	0.455005	10.2895	0.427877	9.61154
0.308432	6.88765	0.0809497	1.96479	0.300824	7.38601	0.462974	10.2537	0.434856	9.56807
0.309916	6.77973	0.0830492	1.97117	0.302288	7.29794	0.470992	10.2204	0.441751	9.52452
0.311326	6.67455	0.0851479	1.97726	0.303908	7.19601	0.479049	10.1892	0.448553	9.48074
0.312674	6.57216	0.0872458	1.98307	0.305653	7.0811	0.487135	10.1599	0.455256	9.43658
0.313966	6.47257	0.0893429	1.98862	0.30729	6.96861	0.495239	10.132	0.461851	9.39191
0.315211	6.37576	0.0914392	1.99393	0.308834	6.85871	0.503355	10.1054	0.468331	9.3466
0.316414	6.28171	0.0935349	1.99902	0.310297	6.75151	0.511474	10.0799	0.474689	9.30055
0.31758	6.19037	0.09563	2.00389	0.31169	6.64707	0.519589	10.0552	0.480917	9.25365
0.318716	6.10169	0.0977244	2.00857	0.313022	6.54542	0.527695	10.0312	0.487008	9.20581
0.319824	6.01561	0.0998182	2.01305	0.314301	6.44657	0.535784	10.0077	0.492955	9.15696
0.320909	5.93207	0.101912	2.01736	0.315534	6.3505	0.543852	9.98466	0.498752	9.10703
0.321974	5.85098	0.104004	2.02151	0.316727	6.25718	0.551893	9.96189	0.504394	9.05599
0.323022	5.77229	0.106097	2.02549	0.317885	6.16655	0.559902	9.9393	0.509876	9.0038
0.324054	5.69591	0.108188	2.02933	0.319013	6.07857	0.567874	9.91679	0.515195	8.95046
0.325074	5.62177	0.11028	2.03303	0.320115	5.99317	0.575804	9.89429	0.520347	8.89597
0.326084	5.54981	0.112371	2.0366	0.321194	5.91028	0.583688	9.87171	0.52533	8.84035
0.327085	5.47995	0.114461	2.04004	0.322254	5.82984	0.59152	9.84899	0.530144	8.78365
0.328078	5.41211	0.116551	2.04336	0.323297	5.75177	0.599298	9.82606	0.534789	8.7259
0.329066	5.34624	0.118641	2.04657	0.324326	5.67599	0.607016	9.80285	0.539265	8.66719
0.330049	5.28226	0.12073	2.04967	0.325344	5.60244	0.614671	9.77933	0.543576	8.60758
0.331029	5.2201	0.12282	2.05267	0.326351	5.53105	0.622258	9.75544	0.547724	8.54716
0.332007	5.15971	0.124908	2.05557	0.327349	5.46173	0.629774	9.73113	0.551712	8.48602
0.332983	5.10102	0.126997	2.05838	0.328341	5.39442	0.637216	9.70638	0.555546	8.42426
0.333958	5.04397	0.129085	2.0611	0.329328	5.32906	0.644578	9.68114	0.559229	8.36198
0.334934	4.98851	0.131173	2.06373	0.33031	5.26557	0.651859	9.65538	0.562768	8.29927
0.33591	4.93458	0.133261	2.06629	0.331289	5.20389	0.659054	9.62907	0.565738	8.24435
0.336888	4.88212	0.135348	2.06877	0.332266	5.14395	0.666161	9.60219	0.568189	8.19739
0.337868	4.83109	0.137435	2.07118	0.333242	5.0857	0.673175	9.57472	0.570162	8.15849
0.33885	4.78144	0.139522	2.07351	0.334218	5.02908	0.680095	9.54663	0.571688	8.12769
0.339836	4.73311	0.141609	2.07578	0.335193	4.97403	0.686917	9.51791	0.572791	8.10504
0.340824	4.68607	0.143695	2.07799	0.33617	4.9205	0.693638	9.48854	0.573489	8.09054
0.341816	4.64027	0.145782	2.08013	0.337148	4.86842	0.700256	9.45852	0.574482	8.06969
0.342813	4.59567	0.147868	2.08222	0.338129	4.81777	0.706768	9.42784	0.575546	8.04703
0.343813	4.55223	0.149954	2.08425	0.339112	4.76847	0.713172	9.39648	0.57697	8.01622
0.344819	4.50991	0.152039	2.08622	0.340098	4.72049	0.719466	9.36445	0.578734	7.97729
0.345829	4.46866	0.154125	2.08814	0.341087	4.67379	0.725648	9.33175	0.580811	7.93026
0.346844	4.42847	0.15621	2.09002	0.342081	4.62831	0.731716	9.29837	0.583174	7.87522
0.347865	4.38928	0.158296	2.09184	0.343078	4.58402	0.737668	9.26433	0.585792	7.81229
0.348891	4.35108	0.160381	2.09362	0.34408	4.54088	0.743504	9.22962	0.588316	7.74966
0.349922	4.31382	0.162466	2.09535	0.345087	4.49884	0.749222	9.19426	0.59075	7.68738
0.35096	4.27748	0.164551	2.09704	0.346098	4.45788	0.754822	9.15827	0.593101	7.62551
0.352003	4.24203	0.166635	2.09869	0.347115	4.41796	0.760303	9.12166	0.595371	7.5641
0.353053	4.20744	0.16872	2.1003	0.348137	4.37904	0.765664	9.08444	0.597567	7.50318
0.354108	4.17367	0.170804	2.10187	0.349164	4.34109	0.770907	9.04664	0.599693	7.4428
0.35517	4.14072	0.172889	2.1034	0.350197	4.30408	0.776032	9.00828	0.601752	7.38298
0.356239	4.10855	0.174973	2.1049	0.351237	4.26798	0.781038	8.96939	0.603748	7.32376
0.357313	4.07713	0.177057	2.10636	0.352282	4.23275	0.785927	8.92999	0.605686	7.26515
0.358394	4.04645	0.179141	2.10779	0.353333	4.19839	0.7907	8.89011	0.607568	7.20719
0.359482	4.01648	0.181225	2.10919	0.35439	4.16484	0.795357	8.84977	0.609399	7.14988
0.360576	3.9872	0.183309	2.11055	0.355454	4.1321	0.799902	8.80902	0.61118	7.09324
0.361677	3.95859	0.185392	2.11189	0.356523	4.10013	0.804335	8.76787	0.612916	7.03729
0.362642	3.93419	0.187476	2.1132	0.3576	4.06891	0.808658	8.72637	0.614608	6.98203
0.363468	3.91377	0.189559	2.11448	0.358683	4.03842	0.812873	8.68454	0.616259	6.92747
0.364155	3.89714	0.191643	2.11573	0.359772	4.00863	0.81646	8.64785	0.617872	6.87361
0.364699	3.88415	0.193726	2.11695	0.360868	3.97953	0.819455	8.61641	0.61945	6.82047
0.3651	3.87469	0.195809	2.11815	0.361971	3.9511	0.82189	8.59031	0.620993	6.76803
0.365357	3.86868	0.197893	2.11933	0.36308	3.92331	0.823788	8.56962	0.622505	6.71631
0.365728	3.86009	0.199976	2.12048	0.364196	3.89614	0.825169	8.55437	0.623986	6.66529
0.366131	3.85083	0.202059	2.12161	0.365319	3.86958	0.826046	8.5446	0.62544	6.61498
0.366681	3.83834	0.204142	2.12271	0.366448	3.84361	0.827297	8.53054	0.626867	6.56538
0.36738	3.82275	0.206225	2.12379	0.367584	3.81822	0.828646	8.51523	0.628269	6.51648
0.368227	3.80417	0.208307	2.12486	0.368727	3.79338	0.830461	8.49437	0.629648	6.46827
0.369226	3.78276	0.21039	2.1259	0.369877	3.76908	0.832724	8.46795	0.631005	6.42076
0.370379	3.75869	0.212473	2.12692	0.371034	3.74531	0.835413	8.43592	0.632341	6.37393
0.371538	3.73514	0.214555	2.12792	0.372197	3.72204	0.838504	8.39828	0.633658	6.32777
0.372704	3.71209	0.216638	2.1289	0.373367	3.69928	0.841967	8.355	0.634956	6.28229
0.373877	3.68954	0.21872	2.12986	0.374543	3.67699	0.845343	8.31166	0.636238	6.23747
0.375057	3.66746	0.220803	2.13081	0.375727	3.65518	0.848635	8.26828	0.637503	6.1933
0.376243	3.64584	0.222885	2.13174	0.376917	3.63382	0.851846	8.2249	0.638753	6.14978
0.377436	3.62468	0.224967	2.13265	0.378114	3.6129	0.854977	8.18154	0.639989	6.1069
0.378635	3.60395	0.22705	2.13355	0.379317	3.59242	0.858032	8.13821	0.641211	6.06465
0.379842	3.58365	0.229132	2.13443	0.380527	3.57236	0.861013	8.09495	0.642421	6.02302
0.381054	3.56377	0.231214	2.13529	0.381744	3.5527	0.863922	8.05177	0.64362	5.982
0.382274	3.54429	0.233296	2.13614	0.382967	3.53345	0.866762	8.0087	0.644807	5.94158
0.3835	3.52521	0.235378	2.13697	0.384196	3.51458	0.869535	7.96574	0.645984	5.90176
0.384732	3.50651	0.23746	2.13779	0.385433	3.49609	0.872243	7.92293	0.647152	5.86253
0.385972	3.48818	0.239542	2.1386	0.386675	3.47797	0.874889	7.88028	0.64831	5.82387
0.387217	3.47022	0.241624	2.13939	0.387924	3.46021	0.877475	7.83779	0.64946	5.78578
0.388469	3.45261	0.243706	2.14017	0.38918	3.4428	0.880003	7.79549	0.650602	5.74824
0.389727	3.43534	0.245788	2.14093	0.390442	3.42573	0.882474	7.7534	0.651737	5.71125
0.390992	3.41842	0.24787	2.14168	0.39171	3.40899	0.884892	7.71151	0.652866	5.67481
0.392263	3.40182	0.249951	2.14242	0.392985	3.39257	0.887257	7.66985	0.653987	5.63889
0.39354	3.38554	0.252033	2.14315	0.394266	3.37647	0.889573	7.62843	0.655104	5.6035
0.394824	3.36958	0.254115	2.14387	0.395553	3.36068	0.891839	7.58725	0.656214	5.56862
0.396114	3.35392	0.256196	2.14457	0.396846	3.34519	0.89406	7.54632	0.65732	5.53425
0.39741	3.33855	0.258278	2.14527	0.398145	3.32999	0.896235	7.50566	0.658421	5.50037
0.398712	3.32348	0.260359	2.14595	0.399451	3.31507	0.898367	7.46526	0.659518	5.46698
0.40002	3.30868	0.262441	2.14662	0.400762	3.30044	0.900458	7.42515	0.66061	5.43408
0.401334	3.29417	0.264522	2.14728	0.40208	3.28608	0.902508	7.38532	0.6617	5.40164
0.402654	3.27992	0.266604	2.14793	0.403403	3.27198	0.90452	7.34578	0.662786	5.36966
0.40398	3.26594	0.268685	2.14857	0.404733	3.25814	0.906495	7.30653	0.663869	5.33814
0.405312	3.25221	0.270767	2.14921	0.406068	3.24455	0.908434	7.26758	0.664949	5.30707
0.40665	3.23873	0.272848	2.14983	0.407409	3.23122	0.910338	7.22893	0.666027	5.27644
0.407994	3.2255	0.274929	2.15044	0.408756	3.21812	0.912209	7.19059	0.667103	5.24624
0.409343	3.2125	0.277011	2.15104	0.410109	3.20526	0.914049	7.15256	0.668177	5.21647
0.410698	3.19974	0.279092	2.15164	0.411467	3.19263	0.915857	7.11484	0.66925	5.18711
0.412059	3.18721	0.281173	2.15223	0.412832	3.18022	0.917637	7.07744	0.670321	5.15816
0.413426	3.1749	0.283254	2.1528	0.414201	3.16803	0.919387	7.04035	0.67139	5.12962
0.414798	3.16281	0.285336	2.15337	0.415576	3.15606	0.921111	7.00358	0.672459	5.10147
0.416175	3.15093	0.287417	2.15393	0.416957	3.1443	0.922808	6.96713	0.673527	5.07371
0.417559	3.13926	0.289498	2.15449	0.418344	3.13274	0.92448	6.931	0.674595	5.04633
0.418947	3.12779	0.291579	2.15503	0.419735	3.12139	0.926127	6.89518	0.675661	5.01933
0.420341	3.11652	0.29366	2.15557	0.421132	3.11023	0.927751	6.85969	0.676728	4.9927
0.421741	3.10544	0.295741	2.1561	0.422535	3.09926	0.929352	6.82452	0.677795	4.96643
0.423145	3.09455	0.297822	2.15662	0.423942	3.08848	0.930932	6.78967	0.678861	4.94052
0.424555	3.08385	0.299903	2.15714	0.425355	3.07788	0.932491	6.75513	0.679928	4.91495
0.425971	3.07333	0.301984	2.15765	0.426774	3.06746	0.93403	6.72092	0.680995	4.88974
0.427391	3.06299	0.304065	2.15815	0.428197	3.05722	0.935549	6.68702	0.682063	4.86486
0.428817	3.05283	0.306146	2.15864	0.429626	3.04715	0.93705	6.65344	0.683131	4.84031
0.430248	3.04283	0.308227	2.15913	0.431059	3.03725	0.938533	6.62018	0.6842	4.81609
0.431683	3.033	0.310308	2.15961	0.432498	3.02751	0.939999	6.58722	0.68527	4.79219
0.433124	3.02333	0.312388	2.16009	0.433941	3.01793	0.941448	6.55459	0.686341	4.76861
0.43457	3.01382	0.314469	2.16056	0.43539	3.00851	0.942882	6.52226	0.687412	4.74534
0.436021	3.00447	0.31655	2.16102	0.436843	2.99925	0.9443	6.49024	0.688485	4.72237
0.437476	2.99527	0.318631	2.16148	0.438302	2.99013	0.945703	6.45853	0.68956	4.69971
0.438937	2.98622	0.320712	2.16193	0.439765	2.98116	0.947093	6.42712	0.690635	4.67734
0.440402	2.97732	0.322792	2.16237	0.441233	2.97234	0.948468	6.39602	0.691712	4.65526
0.441872	2.96855	0.324873	2.16281	0.442705	2.96366	0.949831	6.36521	0.692791	4.63346
0.443346	2.95993	0.326954	2.16325	0.444183	2.95512	0.951181	6.33471	0.693871	4.61195
0.444826	2.95145	0.329035	2.16368	0.445665	2.94671	0.952519	6.3045	0.694953	4.59071
0.44631	2.9431	0.331115	2.1641	0.447151	2.93844	0.953846	6.27459	0.696036	4.56974
0.447798	2.93489	0.333196	2.16452	0.448642	2.9303	0.955161	6.24497	0.697122	4.54904
0.449291	2.9268	0.335277	2.16493	0.450138	2.92228	0.956466	6.21563	0.698209	4.5286
0.450789	2.91884	0.337357	2.16534	0.451638	2.9144	0.95776	6.18659	0.699298	4.50842
0.452291	2.91101	0.339438	2.16574	0.453143	2.90663	0.959044	6.15782	0.700389	4.4885
0.453797	2.90329	0.341518	2.16614	0.454652	2.89898	0.960319	6.12934	0.701482	4.46882
0.455308	2.8957	0.343599	2.16653	0.456165	2.89146	0.961585	6.10114	0.702578	4.44939
0.456824	2.88822	0.345679	2.16692	0.457683	2.88404	0.962842	6.07322	0.703675	4.4302
0.458343	2.88086	0.34776	2.16731	0.459205	2.87674	0.964091	6.04556	0.704775	4.41125
0.459867	2.87361	0.349841	2.16769	0.460731	2.86956	0.965332	6.01818	0.705877	4.39253
0.461395	2.86647	0.351921	2.16806	0.462261	2.86248	0.966565	5.99107	0.706982	4.37405
0.462927	2.85944	0.354001	2.16843	0.463796	2.85551	0.96779	5.96422	0.708089	4.35579
0.464464	2.85251	0.356082	2.1688	0.465334	2.84864	0.969009	5.93764	0.709198	4.33775
0.466004	2.84569	0.358162	2.16916	0.466877	2.84187	0.97022	5.91132	0.710309	4.31993
0.467548	2.83897	0.360243	2.16952	0.468424	2.83521	0.971425	5.88525	0.711424	4.30233
0.469097	2.83235	0.362323	2.16987	0.469975	2.82865	0.972624	5.85944	0.71254	4.28494
0.47065	2.82582	0.364404	2.17022	0.47153	2.82218	0.973817	5.83388	0.713659	4.26776
0.472206	2.8194	0.366484	2.17057	0.473088	2.81581	0.975004	5.80857	0.714781	4.25078
0.473766	2.81307	0.368564	2.17091	0.474651	2.80953	0.976185	5.78351	0.715906	4.23401
0.475331	2.80683	0.370645	2.17125	0.476217	2.80334	0.977362	5.75869	0.717033	4.21744
0.476899	2.80068	0.372725	2.17158	0.477788	2.79724	0.978533	5.73411	0.718163	4.20106
0.478471	2.79462	0.374806	2.17191	0.479362	2.79123	0.9797	5.70978	0.719295	4.18488
0.480047	2.78865	0.376886	2.17224	0.48094	2.78531	0.980862	5.68567	0.72043	4.16888
0.481626	2.78276	0.378966	2.17256	0.482521	2.77947	0.982019	5.66181	0.721568	4.15308
0.483209	2.77696	0.381046	2.17288	0.484107	2.77372	0.983173	5.63817	0.722709	4.13745
0.484796	2.77124	0.383127	2.1732	0.485696	2.76804	0.984322	5.61476	0.723852	4.12202
0.486387	2.7656	0.385207	2.17351	0.487288	2.76245	0.985468	5.59158	0.724999	4.10675
0.487981	2.76005	0.387287	2.17382	0.488884	2.75694	0.98661	5.56862	0.726148	4.09167
0.489579	2.75457	0.389368	2.17413	0.490484	2.7515	0.987748	5.54588	0.7273	4.07676
0.49118	2.74917	0.391448	2.17443	0.492087	2.74614	0.988884	5.52337	0.728455	4.06202
0.492785	2.74384	0.393528	2.17473	0.493694	2.74086	0.990016	5.50106	0.729613	4.04745
0.494393	2.73859	0.395608	2.17503	0.495304	2.73565	0.991145	5.47897	0.730773	4.03304
0.496004	2.73341	0.397688	2.17533	0.496918	2.73051	0.992272	5.4571	0.731937	4.0188
0.497619	2.7283	0.399769	2.17562	0.498535	2.72544	0.993396	5.43543	0.733104	4.00472
0.499238	2.72326	0.401849	2.1759	0.500155	2.72044	0.994517	5.41396	0.734273	3.99079
0.50086	2.71829	0.403929	2.17619	0.501779	2.71551	0.995636	5.3927	0.735446	3.97703
0.502485	2.71339	0.406009	2.17647	0.503405	2.71065	0.996753	5.37164	0.736621	3.96342
0.504113	2.70856	0.408089	2.17675	0.505036	2.70585	0.997868	5.35079	0.737799	3.94995
0.505745	2.70379	0.410169	2.17703	0.506669	2.70112	0.998981	5.33012	0.738981	3.93664
0.50738	2.69909	0.412249	2.1773	0.508306	2.69645	1.00009	5.30966	0.740165	3.92348
0.509018	2.69445	0.41433	2.17757	0.509946	2.69185			0.741352	3.91046
0.510659	2.68987	0.41641	2.17784	0.511589	2.6873			0.742543	3.89758
0.512303	2.68535	0.41849	2.1781	0.513235	2.68282			0.743736	3.88485
0.513951	2.68089	0.42057	2.17837	0.514884	2.6784			0.744932	3.87225
0.515601	2.67649	0.42265	2.17863	0.516536	2.67403			0.746132	3.8598
0.517255	2.67215	0.42473	2.17889	0.518191	2.66972			0.747334	3.84747
0.518911	2.66787	0.42681	2.17914	0.51985	2.66547			0.74854	3.83528
0.520571	2.66364	0.42889	2.17939	0.521511	2.66128			0.749748	3.82322
0.522233	2.65947	0.43097	2.17964	0.523175	2.65714			0.75096	3.81129
0.523899	2.65536	0.43305	2.17989	0.524842	2.65305			0.752174	3.79949
0.525567	2.65129	0.43513	2.18014	0.526512	2.64902			0.753392	3.78781
0.527238	2.64728	0.43721	2.18038	0.528185	2.64503			0.754612	3.77626
0.528913	2.64332	0.43929	2.18062	0.529861	2.6411			0.755836	3.76483
0.53059	2.63941	0.44137	2.18086	0.531539	2.63722			0.757063	3.75352
0.532269	2.63555	0.44345	2.1811	0.533221	2.63339			0.758292	3.74233
0.533952	2.63174	0.44553	2.18133	0.534905	2.62961			0.759525	3.73126
0.535637	2.62798	0.44761	2.18156	0.536592	2.62587			0.760761	3.7203
0.537325	2.62427	0.44969	2.18179	0.538281	2.62219			0.762	3.70946
0.539016	2.6206	0.45177	2.18202	0.539973	2.61855			0.763242	3.69873
0.540709	2.61698	0.45385	2.18225	0.541668	2.61495			0.764487	3.68811
0.542405	2.6134	0.45593	2.18247	0.543366	2.6114			0.765734	3.6776
0.544104	2.60987	0.45801	2.18269	0.545066	2.60789			0.766985	3.6672
0.545805	2.60638	0.46009	2.18291	0.546769	2.60443			0.768239	3.6569
0.547509	2.60294	0.462169	2.18313	0.548474	2.60101			0.769496	3.64671
0.549215	2.59954	0.464249	2.18335	0.550182	2.59763			0.770756	3.63663
0.550924	2.59618	0.466329	2.18356	0.551892	2.59429			0.772019	3.62665
0.552636	2.59286	0.468409	2.18377	0.553605	2.591			0.773285	3.61676
0.55435	2.58958	0.470489	2.18398	0.55532	2.58774			0.774554	3.60698
0.556066	2.58634	0.472569	2.18419	0.557038	2.58453			0.775826	3.5973
0.557785	2.58314	0.474649	2.1844	0.558758	2.58135			0.777101	3.58771
0.559506	2.57998	0.476729	2.1846	0.560481	2.57821			0.778379	3.57822
0.56123	2.57686	0.478808	2.1848	0.562206	2.57511			0.77966	3.56882
