Sym0		Asym0		Sym1		Sym2		Sym3		Sym4		Asym1		Asym2		Asym3		Asym4	
424  Points		527  Points		423  Points		406  Points		352  Points		252  Points		455  Points		400  Points		344  Points		207  Points	
Freq (MHz)	Vgr (m/ms)	Freq (MHz)	Vgr (m/ms)	Freq (MHz)	Vgr (m/ms)	Freq (MHz)	Vgr (m/ms)	Freq (MHz)	Vgr (m/ms)	Freq (MHz)	Vgr (m/ms)	Freq (MHz)	Vgr (m/ms)	Freq (MHz)	Vgr (m/ms)	Freq (MHz)	Vgr (m/ms)	Freq (MHz)	Vgr (m/ms)
0.27951	0.0111575	0.000192825	0.205853	0.279514	0.01716	0.449927	0.00629916	0.559017	0.00706769	0.838526	0.0057409	0.139755	0.0471387	0.419268	0.018328	0.698771	0.00457725	0.899855	0.0052372
0.27952	0.0169606	0.000384617	0.240676	0.27953	0.0229455	0.449933	0.0120575	0.559024	0.0130994	0.838531	0.00887532	0.139799	0.082876	0.419285	0.0245717	0.698776	0.0078471	0.899859	0.00806537
0.279541	0.028584	0.000641297	0.309913	0.279556	0.0345892	0.44995	0.0236198	0.559041	0.0251886	0.838543	0.0151291	0.13991	0.1542	0.419314	0.0370773	0.698786	0.0143607	0.89987	0.0136934
0.279573	0.0401852	0.000962105	0.378294	0.279594	0.046231	0.449977	0.0351721	0.559071	0.0372821	0.83856	0.0214112	0.140086	0.225142	0.419354	0.049564	0.698802	0.0208695	0.899885	0.0193099
0.279616	0.0518154	0.00134621	0.445696	0.279643	0.0577957	0.450015	0.0467045	0.559111	0.049384	0.838582	0.0276765	0.140329	0.295471	0.419406	0.0620862	0.698825	0.0273684	0.899906	0.0249764
0.27967	0.0634302	0.00179261	0.511872	0.279702	0.0694263	0.450064	0.0582701	0.559163	0.061503	0.838611	0.0339082	0.140637	0.364936	0.41947	0.0746061	0.698853	0.0338478	0.899932	0.0305966
0.279734	0.0750143	0.00230002	0.576695	0.279772	0.0810419	0.450124	0.0698291	0.559226	0.0735828	0.838646	0.0401462	0.141009	0.433407	0.419545	0.0870485	0.698888	0.0403611	0.899963	0.0361972
0.27981	0.0866102	0.00286722	0.640131	0.279853	0.0926275	0.450194	0.0813749	0.5593	0.0856575	0.838686	0.0463964	0.141445	0.500768	0.419632	0.0995552	0.698929	0.0468693	0.899999	0.0418321
0.279896	0.0982298	0.00349284	0.701963	0.279945	0.104227	0.450275	0.0928941	0.559385	0.0977217	0.838732	0.0526714	0.141942	0.566864	0.419731	0.112044	0.698975	0.053367	0.900041	0.0474623
0.279993	0.109824	0.00417525	0.762125	0.280047	0.115779	0.450367	0.104434	0.559482	0.109765	0.838784	0.0589224	0.142501	0.631526	0.419841	0.124498	0.699028	0.0598439	0.900087	0.053083
0.2801	0.121366	0.00491297	0.820634	0.28016	0.127385	0.45047	0.11594	0.55959	0.121841	0.838842	0.065199	0.143119	0.694639	0.419963	0.136954	0.699087	0.0663524	0.900139	0.0586847
0.280219	0.13295	0.00570441	0.8773	0.280284	0.138952	0.450583	0.127455	0.559709	0.133907	0.838906	0.0714532	0.143795	0.75612	0.420096	0.149415	0.699152	0.0728508	0.900197	0.0643217
0.280348	0.144548	0.00654773	0.932112	0.280419	0.150513	0.450707	0.138985	0.559839	0.145954	0.838975	0.0776628	0.144528	0.815872	0.420241	0.161886	0.699223	0.0793291	0.900259	0.0699561
0.280488	0.156097	0.0074413	0.98512	0.280565	0.162064	0.450842	0.150472	0.559981	0.157964	0.83905	0.0839297	0.145315	0.873854	0.420398	0.174304	0.6993	0.0858404	0.900327	0.0755853
0.280639	0.167624	0.00838339	1.0362	0.280721	0.173592	0.450988	0.161948	0.560134	0.169971	0.839131	0.0901647	0.146156	0.930052	0.420566	0.186689	0.699383	0.0923444	0.9004	0.081204
0.280801	0.179178	0.00937215	1.08542	0.280888	0.18515	0.451144	0.1734	0.560298	0.181973	0.839218	0.0964091	0.146931	0.977578	0.420746	0.19908	0.699472	0.0988338	0.900478	0.0868017
0.280973	0.190715	0.0104059	1.13272	0.281066	0.196694	0.451311	0.184879	0.560473	0.193966	0.839311	0.102672	0.147621	1.017	0.420937	0.211485	0.699567	0.105294	0.900562	0.0924307
0.281156	0.202216	0.0114828	1.17818	0.281255	0.208209	0.451488	0.196338	0.560659	0.205941	0.83941	0.1089	0.148213	1.04874	0.42114	0.223844	0.699668	0.11177	0.900651	0.098049
0.28135	0.213718	0.0126014	1.22186	0.281454	0.219667	0.451677	0.207757	0.560856	0.217878	0.839514	0.115129	0.148693	1.07323	0.421354	0.236183	0.699775	0.118275	0.900745	0.103646
0.281554	0.225224	0.0137597	1.26367	0.281664	0.231158	0.451876	0.219168	0.561065	0.229815	0.839624	0.121363	0.149053	1.09128	0.42158	0.248558	0.699888	0.124767	0.900844	0.109274
0.281769	0.236736	0.0149561	1.30369	0.281885	0.24264	0.452085	0.230566	0.561285	0.24175	0.83974	0.127604	0.149287	1.10252	0.421817	0.260855	0.700007	0.131234	0.900948	0.114889
0.281995	0.248189	0.0161889	1.34208	0.282116	0.254104	0.452305	0.241936	0.561515	0.253681	0.839862	0.133861	0.149626	1.1183	0.422066	0.273144	0.700133	0.137721	0.901058	0.120481
0.282232	0.259596	0.0174569	1.37878	0.282358	0.265535	0.452536	0.253322	0.561757	0.265532	0.83999	0.140076	0.150001	1.13556	0.422326	0.285419	0.700264	0.144176	0.901173	0.126098
0.282479	0.271056	0.0187582	1.41381	0.282611	0.27697	0.452777	0.26467	0.56201	0.277369	0.840123	0.146281	0.150521	1.15852	0.422598	0.297663	0.700401	0.150642	0.901293	0.131692
0.282737	0.282478	0.0200914	1.44732	0.282875	0.288414	0.453029	0.276012	0.562274	0.28925	0.840262	0.152539	0.151192	1.18686	0.422881	0.30992	0.700545	0.157129	0.901418	0.137314
0.283005	0.293895	0.0214551	1.47934	0.283149	0.299803	0.453292	0.287344	0.562549	0.301073	0.840407	0.158755	0.152025	1.22025	0.423175	0.322129	0.700694	0.163583	0.901549	0.142918
0.283285	0.305305	0.0228479	1.50989	0.283433	0.311155	0.453565	0.298582	0.562835	0.312854	0.840558	0.164961	0.153031	1.25814	0.423481	0.334316	0.70085	0.170047	0.901684	0.148487
0.283574	0.316625	0.0242686	1.53907	0.283728	0.322507	0.453848	0.309853	0.563132	0.324625	0.840715	0.171149	0.154223	1.29997	0.423798	0.346459	0.701011	0.176529	0.901825	0.154131
0.283875	0.327986	0.0257158	1.56687	0.284034	0.33386	0.454142	0.321114	0.56344	0.336375	0.840877	0.177371	0.155454	1.34016	0.424127	0.358587	0.701179	0.182974	0.901972	0.159706
0.284185	0.339356	0.0271883	1.59341	0.284309	0.343755	0.454446	0.332359	0.563759	0.348083	0.841045	0.183591	0.156721	1.37856	0.424466	0.370684	0.701352	0.189419	0.902123	0.16529
0.284507	0.35067	0.028685	1.61873	0.28455	0.352185	0.454761	0.343568	0.564089	0.35978	0.841219	0.189805	0.158023	1.41534	0.424817	0.382792	0.701532	0.195864	0.90228	0.170893
0.284839	0.361946	0.0302046	1.64285	0.284754	0.359039	0.455087	0.354706	0.564429	0.371456	0.841399	0.196006	0.159358	1.45057	0.42518	0.394851	0.701717	0.202309	0.902441	0.176457
0.285181	0.373218	0.0317462	1.66591	0.284917	0.364527	0.455422	0.365851	0.564781	0.383088	0.841584	0.202184	0.160726	1.48427	0.425553	0.406884	0.701909	0.208753	0.902608	0.182094
0.285534	0.384482	0.0333089	1.68791	0.285039	0.368567	0.455768	0.377007	0.565143	0.394707	0.841775	0.208387	0.162124	1.51642	0.425938	0.418865	0.702106	0.215195	0.902781	0.187654
0.285898	0.395731	0.0348915	1.70886	0.285118	0.371205	0.456125	0.388114	0.565516	0.4063	0.841973	0.214567	0.163551	1.54715	0.426334	0.430814	0.702309	0.221636	0.902958	0.193207
0.286272	0.40695	0.0364931	1.72884	0.285232	0.374889	0.456491	0.399195	0.5659	0.41784	0.842175	0.220776	0.165007	1.57653	0.426741	0.442775	0.702519	0.22807	0.903141	0.19882
0.286656	0.418109	0.038113	1.74794	0.285358	0.378827	0.456869	0.410224	0.566295	0.429347	0.842384	0.226967	0.166489	1.6046	0.427159	0.454686	0.702734	0.234495	0.903329	0.204407
0.287051	0.429294	0.0397502	1.76615	0.28553	0.384398	0.457256	0.421223	0.5667	0.440863	0.842598	0.233124	0.167997	1.63144	0.427588	0.466568	0.702956	0.240898	0.903522	0.209941
0.287456	0.440458	0.041404	1.78351	0.285752	0.391281	0.457653	0.432234	0.567116	0.452321	0.842818	0.239285	0.169529	1.65703	0.428028	0.478394	0.703183	0.247333	0.90372	0.215517
0.287872	0.45158	0.0430736	1.80007	0.286026	0.399621	0.458061	0.443196	0.567543	0.46374	0.843044	0.245456	0.171084	1.68146	0.428479	0.490182	0.703417	0.253758	0.903923	0.221101
0.288297	0.46269	0.0447582	1.81591	0.286354	0.409396	0.458479	0.454133	0.567981	0.475152	0.843276	0.251644	0.172662	1.70489	0.428942	0.501964	0.703656	0.260162	0.904132	0.22663
0.288734	0.473779	0.0464573	1.83104	0.286741	0.420563	0.458908	0.465022	0.568429	0.486476	0.843513	0.257796	0.174261	1.72718	0.429415	0.513737	0.703902	0.266526	0.904346	0.232195
0.28918	0.484823	0.0481702	1.84548	0.287138	0.431714	0.459346	0.475886	0.568887	0.497772	0.843756	0.263947	0.175881	1.74847	0.429899	0.525418	0.704153	0.272953	0.904565	0.237759
0.289637	0.495851	0.0498962	1.85927	0.287546	0.442855	0.459794	0.486703	0.569356	0.509084	0.844005	0.270097	0.177519	1.7689	0.430394	0.537061	0.70441	0.279363	0.904789	0.24332
0.290104	0.506848	0.0516347	1.87242	0.287963	0.453992	0.460253	0.497495	0.569836	0.520356	0.844259	0.276244	0.179177	1.78838	0.430834	0.547195	0.704673	0.285737	0.905018	0.248875
0.290582	0.517855	0.0533853	1.88502	0.288392	0.465091	0.460721	0.508313	0.570326	0.531547	0.84452	0.282385	0.180852	1.80698	0.431216	0.555857	0.704943	0.292114	0.905252	0.25442
0.291069	0.52881	0.0551473	1.89705	0.28883	0.476206	0.4612	0.519035	0.570826	0.542723	0.844786	0.288516	0.182544	1.82477	0.431536	0.562915	0.705218	0.298495	0.905492	0.259942
0.291567	0.539735	0.0569202	1.90857	0.289279	0.487257	0.461688	0.529714	0.571337	0.55387	0.845057	0.294625	0.184252	1.8418	0.431792	0.568587	0.705499	0.304884	0.905737	0.265494
0.292075	0.55067	0.0587037	1.9196	0.289738	0.498239	0.462122	0.539023	0.571858	0.564957	0.845335	0.300764	0.185976	1.85808	0.431982	0.572641	0.705786	0.311218	0.905987	0.27103
0.292593	0.561555	0.0604972	1.9301	0.290207	0.50926	0.462498	0.546938	0.57239	0.575999	0.845618	0.306891	0.187714	1.87365	0.432104	0.57527	0.706079	0.317587	0.906242	0.276537
0.293121	0.572411	0.0623002	1.94017	0.290687	0.520227	0.462813	0.553463	0.572932	0.587022	0.845906	0.312991	0.189467	1.88858	0.432281	0.579123	0.706378	0.323953	0.906502	0.282058
0.29366	0.583211	0.0641125	1.94985	0.291177	0.531167	0.463065	0.558643	0.573484	0.59801	0.846201	0.319112	0.191234	1.90282	0.432474	0.583218	0.706682	0.330314	0.906767	0.287607
0.294208	0.594043	0.0659335	1.9591	0.291677	0.54213	0.463251	0.562358	0.574046	0.608926	0.846501	0.325202	0.193013	1.91649	0.432739	0.588811	0.706993	0.336662	0.907038	0.293138
0.294767	0.604869	0.067763	1.96792	0.292187	0.553032	0.463371	0.564753	0.574618	0.619845	0.846807	0.331304	0.194805	1.92963	0.433078	0.595776	0.70731	0.342986	0.907314	0.298634
0.295335	0.615606	0.0696006	1.97642	0.292707	0.563902	0.463545	0.568248	0.575201	0.630697	0.847118	0.337354	0.196608	1.94217	0.433494	0.604327	0.707632	0.349337	0.907594	0.304132
0.295914	0.626314	0.0714459	1.98455	0.293238	0.574758	0.463734	0.571995	0.575794	0.641486	0.847436	0.343448	0.198424	1.95418	0.433988	0.614293	0.707961	0.355665	0.90788	0.309635
0.296502	0.637037	0.0732985	1.99231	0.293778	0.585605	0.463994	0.577174	0.576396	0.652226	0.847758	0.349559	0.20025	1.96572	0.434566	0.625649	0.708295	0.36195	0.908171	0.315149
0.297101	0.647716	0.0751583	1.99978	0.294329	0.596412	0.464327	0.583632	0.577009	0.662939	0.848087	0.355627	0.202087	1.9768	0.435154	0.636967	0.708635	0.368295	0.908468	0.320609
0.297709	0.65838	0.0770249	2.00695	0.29489	0.607162	0.464733	0.591383	0.577632	0.673672	0.848421	0.361684	0.203933	1.9874	0.435753	0.648229	0.708981	0.374612	0.908769	0.326111
0.298328	0.669015	0.078898	2.01382	0.29546	0.617921	0.465217	0.600505	0.578182	0.682945	0.848761	0.367718	0.20579	1.9976	0.436362	0.659463	0.709333	0.380873	0.909075	0.33162
0.298956	0.679593	0.0807774	2.02039	0.296041	0.628683	0.465781	0.610919	0.578658	0.690738	0.849106	0.373782	0.207656	2.00739	0.436982	0.670683	0.709691	0.38717	0.909387	0.337072
0.299594	0.6902	0.0826628	2.02672	0.296632	0.639375	0.466355	0.62129	0.579055	0.69724	0.849457	0.37983	0.20953	2.01675	0.437612	0.681859	0.710055	0.393466	0.909703	0.342557
0.300242	0.700796	0.084554	2.03278	0.297232	0.65003	0.466939	0.631639	0.579372	0.70242	0.849814	0.385848	0.211414	2.02579	0.438252	0.692977	0.710424	0.399759	0.910025	0.348033
0.3009	0.711293	0.0864507	2.03861	0.297843	0.660705	0.467532	0.641941	0.579606	0.706185	0.850176	0.391877	0.213305	2.03449	0.438903	0.70403	0.7108	0.406046	0.910352	0.353492
0.301567	0.721815	0.0883527	2.04425	0.298464	0.671316	0.468135	0.652182	0.579757	0.708588	0.850544	0.397929	0.215205	2.04282	0.439564	0.715049	0.711181	0.412321	0.910684	0.35899
0.302245	0.732311	0.0902599	2.04961	0.299094	0.681931	0.468748	0.662429	0.579974	0.712013	0.850918	0.403954	0.217112	2.05084	0.440235	0.726052	0.711568	0.418572	0.911021	0.364419
0.302932	0.742756	0.092172	2.05477	0.299734	0.692512	0.46937	0.672607	0.580212	0.715771	0.851297	0.409926	0.219026	2.05854	0.440917	0.73701	0.711961	0.424776	0.911363	0.369859
0.303629	0.753246	0.0940888	2.05973	0.300384	0.70304	0.470001	0.682749	0.580537	0.720846	0.851682	0.415937	0.220948	2.06595	0.441609	0.747872	0.712359	0.43103	0.91171	0.375317
0.304244	0.762294	0.09601	2.06452	0.301044	0.713613	0.470642	0.692838	0.580951	0.727216	0.852072	0.421952	0.222876	2.07309	0.442311	0.758723	0.712764	0.437314	0.912062	0.380741
0.304774	0.770054	0.0979358	2.06912	0.301714	0.7241	0.471292	0.702862	0.581457	0.734974	0.852468	0.427904	0.224811	2.08	0.443023	0.769532	0.713174	0.44351	0.912419	0.386169
0.305217	0.776425	0.0998656	2.07349	0.302394	0.734581	0.471952	0.712892	0.582057	0.743988	0.852869	0.433876	0.226752	2.08664	0.443745	0.780283	0.71359	0.44975	0.912782	0.391605
0.305569	0.781503	0.101799	2.07777	0.303083	0.745058	0.47262	0.72285	0.582755	0.754309	0.853276	0.439886	0.228699	2.093	0.444477	0.791005	0.713958	0.455142	0.913149	0.397056
0.30583	0.785094	0.103737	2.08185	0.303782	0.755496	0.473298	0.732773	0.583463	0.764596	0.853689	0.445828	0.230652	2.09914	0.445219	0.80164	0.714274	0.459728	0.913522	0.402466
0.305998	0.787501	0.105679	2.08576	0.304491	0.765916	0.473986	0.742679	0.58418	0.77483	0.854107	0.451778	0.23261	2.10507	0.44597	0.812267	0.714539	0.463647	0.913899	0.407866
0.306239	0.791016	0.107624	2.08956	0.305209	0.776289	0.474682	0.752502	0.584907	0.784964	0.854531	0.457746	0.234574	2.11078	0.446732	0.822854	0.714749	0.466572	0.914282	0.413245
0.306503	0.794605	0.109572	2.0932	0.305937	0.786713	0.475388	0.762284	0.585643	0.795122	0.85496	0.463675	0.236544	2.11631	0.447504	0.833348	0.714905	0.468791	0.914669	0.418657
0.306864	0.799658	0.111524	2.09668	0.306675	0.797052	0.476103	0.772046	0.586388	0.805181	0.855395	0.469602	0.238518	2.1216	0.448285	0.843795	0.715005	0.470294	0.915062	0.424061
0.307323	0.806057	0.113479	2.10005	0.307422	0.807384	0.476827	0.781761	0.587143	0.815191	0.855835	0.475524	0.240497	2.12674	0.449076	0.854255	0.715149	0.472247	0.915459	0.42945
0.307884	0.813726	0.115438	2.10335	0.30818	0.817751	0.47756	0.791379	0.587907	0.825213	0.856281	0.481434	0.242481	2.13169	0.449877	0.864612	0.715306	0.474383	0.915862	0.434808
0.308548	0.822687	0.117146	2.10607	0.308946	0.828025	0.478301	0.800985	0.588681	0.835131	0.856732	0.487321	0.244469	2.13647	0.450687	0.874918	0.715522	0.477442	0.91627	0.440176
0.309319	0.832978	0.118605	2.10834	0.309722	0.838289	0.479052	0.810586	0.589464	0.844998	0.857189	0.493236	0.246462	2.14109	0.451507	0.885234	0.715796	0.481291	0.916682	0.445567
0.3101	0.84325	0.119812	2.11012	0.310508	0.848584	0.479812	0.820074	0.590255	0.854802	0.857651	0.499135	0.248459	2.14553	0.452337	0.895446	0.716131	0.485888	0.9171	0.450928
0.310891	0.85355	0.120767	2.11157	0.311304	0.858859	0.48058	0.829542	0.591056	0.864611	0.858119	0.504998	0.25046	2.14984	0.453176	0.905642	0.716528	0.491219	0.917522	0.456303
0.311691	0.86379	0.12147	2.11255	0.312109	0.869086	0.481358	0.839	0.591867	0.874349	0.858531	0.510141	0.252465	2.154	0.454024	0.915758	0.716988	0.497345	0.91795	0.461633
0.3125	0.874037	0.12192	2.1132	0.312923	0.879327	0.482144	0.84838	0.592686	0.883979	0.858886	0.514514	0.254474	2.15803	0.454882	0.925832	0.717454	0.50352	0.918383	0.466946
0.313319	0.884287	0.122567	2.11416	0.313747	0.889574	0.482938	0.857684	0.593514	0.893592	0.859181	0.518107	0.256486	2.16187	0.455749	0.935887	0.717926	0.509684	0.91882	0.4723
0.314148	0.894503	0.123271	2.1151	0.314581	0.899788	0.483742	0.866951	0.594351	0.903195	0.859416	0.520902	0.258502	2.16562	0.456626	0.945858	0.718404	0.515806	0.919263	0.47766
0.314986	0.904701	0.124228	2.11644	0.315424	0.909986	0.484554	0.876235	0.595197	0.912721	0.85959	0.522907	0.260522	2.16926	0.457512	0.955787	0.718887	0.521943	0.91971	0.482961
0.315834	0.914927	0.12544	2.1181	0.316276	0.920211	0.485375	0.885418	0.596052	0.922172	0.859702	0.524293	0.262544	2.17276	0.458407	0.965659	0.719377	0.528051	0.920104	0.487586
0.316691	0.92513	0.126907	2.12005	0.317139	0.930415	0.486204	0.89455	0.596915	0.931584	0.859862	0.526339	0.26457	2.17612	0.459311	0.975502	0.719871	0.534144	0.920443	0.491543
0.317558	0.935322	0.128629	2.12225	0.31801	0.940607	0.487041	0.903657	0.597787	0.940942	0.860038	0.528364	0.266599	2.17941	0.460225	0.985258	0.720372	0.540231	0.920725	0.494728
0.318434	0.945545	0.130607	2.12464	0.318891	0.950829	0.487888	0.912679	0.598668	0.950271	0.860278	0.531186	0.268631	2.1826	0.461147	0.995006	0.720878	0.54635	0.92095	0.49737
0.31932	0.955747	0.132588	2.12698	0.319782	0.961031	0.488742	0.921657	0.599558	0.959513	0.860583	0.534795	0.270666	2.18562	0.462079	1.00471	0.72139	0.552449	0.921116	0.499332
0.320215	0.965938	0.134571	2.12928	0.320682	0.971222	0.489605	0.930614	0.600456	0.968712	0.860954	0.539094	0.272704	2.18859	0.463019	1.01429	0.721908	0.558502	0.921222	0.500512
0.32112	0.976161	0.136556	2.13146	0.321592	0.981445	0.490476	0.939561	0.601363	0.977853	0.861394	0.544215	0.274744	2.19147	0.463969	1.02388	0.722431	0.564531	0.921376	0.502178
0.322034	0.986363	0.138542	2.13357	0.322511	0.991683	0.491356	0.948392	0.602279	0.986964	0.861904	0.549988	0.276788	2.19423	0.464927	1.03343	0.722959	0.570585	0.921543	0.504017
0.322958	0.99659	0.140531	2.13558	0.32344	1.00189	0.492243	0.957165	0.603202	0.996024	0.862419	0.555768	0.278833	2.19689	0.465895	1.04293	0.723494	0.576652	0.921772	0.506635
0.323891	1.00687	0.142522	2.13754	0.324378	1.01212	0.493139	0.965946	0.604135	1.00499	0.862939	0.561587	0.280881	2.1995	0.466871	1.05237	0.724034	0.582688	0.922063	0.509915
0.324834	1.0171	0.144514	2.13947	0.325326	1.0224	0.494043	0.974658	0.605075	1.01393	0.863465	0.56739	0.282932	2.20202	0.467855	1.06174	0.72458	0.588709	0.922417	0.513821
0.325786	1.02737	0.146508	2.14124	0.326283	1.03271	0.494956	0.983299	0.606024	1.02284	0.863997	0.573111	0.284984	2.20441	0.468849	1.07104	0.725131	0.594722	0.922836	0.518452
0.326748	1.03768	0.148504	2.143	0.32725	1.04302	0.495876	0.991904	0.606981	1.03165	0.864533	0.578902	0.287039	2.20674	0.469851	1.08034	0.725688	0.600732	0.923321	0.523684
0.32772	1.04799	0.150502	2.14469	0.328226	1.05334	0.496804	1.00045	0.607946	1.04041	0.865075	0.58469	0.289096	2.20904	0.470862	1.08961	0.72625	0.60674	0.923812	0.528937
0.328701	1.05831	0.152501	2.1463	0.329213	1.0637	0.49774	1.00898	0.60892	1.04915	0.865623	0.590404	0.291156	2.21125	0.471882	1.09874	0.726818	0.61271	0.924307	0.534201
0.329692	1.06871	0.154501	2.14792	0.330209	1.07412	0.498684	1.01745	0.609901	1.05784	0.866176	0.596117	0.293217	2.21331	0.47291	1.10789	0.727392	0.618698	0.924807	0.539432
0.330692	1.07915	0.156503	2.14942	0.331214	1.08457	0.499636	1.02583	0.610891	1.06647	0.866734	0.601867	0.29528	2.21537	0.473946	1.11697	0.727971	0.624658	0.925312	0.544685
0.331703	1.0896	0.158506	2.15086	0.33223	1.09503	0.500595	1.03422	0.611888	1.07504	0.867297	0.607598	0.297345	2.21738	0.474991	1.12601	0.728556	0.630605	0.925822	0.549911
0.332723	1.1001	0.160511	2.15228	0.333255	1.10553	0.501563	1.04253	0.612894	1.08353	0.867866	0.613284	0.299412	2.21927	0.476044	1.135	0.729146	0.636544	0.926337	0.555124
0.333753	1.11063	0.162517	2.15365	0.33429	1.11609	0.502538	1.05078	0.613908	1.09199	0.86844	0.618946	0.30148	2.22113	0.477106	1.14392	0.729742	0.642481	0.926856	0.560331
0.334792	1.12123	0.164524	2.15496	0.335334	1.12676	0.503521	1.059	0.614929	1.10039	0.869019	0.624634	0.303551	2.22294	0.478176	1.15282	0.730344	0.648415	0.927381	0.565571
0.335842	1.13188	0.166532	2.1562	0.336389	1.13743	0.504511	1.06715	0.615958	1.10873	0.869604	0.630334	0.305623	2.22465	0.479254	1.16162	0.73095	0.654312	0.92791	0.570755
