Sym0		Asym0		Sym1		Sym2		Sym3		Sym4		Asym1		Asym2		Asym3		Asym4	
421  Points		526  Points		421  Points		403  Points		350  Points		250  Points		453  Points		398  Points		342  Points		206  Points	
Freq (MHz)	Vgr (m/ms)	Freq (MHz)	Vgr (m/ms)	Freq (MHz)	Vgr (m/ms)	Freq (MHz)	Vgr (m/ms)	Freq (MHz)	Vgr (m/ms)	Freq (MHz)	Vgr (m/ms)	Freq (MHz)	Vgr (m/ms)	Freq (MHz)	Vgr (m/ms)	Freq (MHz)	Vgr (m/ms)	Freq (MHz)	Vgr (m/ms)
0.27951	0.0126442	0.000241337	0.226717	0.279514	0.0176027	0.45001	0.00628099	0.559017	0.00723263	0.838526	0.00591814	0.139755	0.047829	0.419268	0.018715	0.698771	0.00470501	0.900021	0.00530607
0.279522	0.0185938	0.000452568	0.261618	0.27953	0.0234754	0.450016	0.0121232	0.559024	0.0133784	0.838532	0.00905132	0.1398	0.0838164	0.419286	0.0250007	0.698776	0.00803262	0.900026	0.00813547
0.279545	0.0304368	0.000728833	0.331017	0.279558	0.0353075	0.450033	0.0237171	0.559042	0.0255901	0.838543	0.0153747	0.139911	0.15567	0.419315	0.0376321	0.698786	0.0146463	0.900036	0.0137672
0.279579	0.0422574	0.00106938	0.399503	0.279596	0.0471796	0.45006	0.0352596	0.559071	0.037782	0.83856	0.0217226	0.14009	0.227088	0.419356	0.0502974	0.698803	0.0212086	0.900051	0.0193911
0.279624	0.0541067	0.00147326	0.466895	0.279646	0.0589855	0.450098	0.0468454	0.559112	0.0500078	0.838583	0.0280463	0.140334	0.297853	0.419409	0.0629571	0.698826	0.0278147	0.900072	0.0249993
0.27968	0.0659401	0.00193939	0.533051	0.279706	0.0708052	0.450147	0.0584447	0.559165	0.0622277	0.838612	0.034395	0.140645	0.367824	0.419473	0.0756055	0.698855	0.0344351	0.900098	0.0306491
0.279747	0.0777416	0.00246654	0.597833	0.279777	0.0826525	0.450207	0.0699978	0.559228	0.0744362	0.838647	0.0407202	0.14102	0.436797	0.419549	0.0882314	0.69889	0.0410108	0.900129	0.0363092
0.279824	0.0895525	0.00305339	0.661114	0.27986	0.094482	0.450278	0.0815319	0.559303	0.0866217	0.838688	0.0470718	0.141459	0.504575	0.419638	0.100886	0.698931	0.0475705	0.900166	0.0419165
0.279913	0.101382	0.00369846	0.722783	0.279954	0.106276	0.450359	0.0931009	0.55939	0.0988346	0.838735	0.053403	0.14196	0.571064	0.419737	0.113523	0.698979	0.0541714	0.900207	0.0475646
0.280013	0.113177	0.00440021	0.782767	0.280058	0.118071	0.450451	0.104667	0.559488	0.111029	0.838788	0.0596934	0.142523	0.636148	0.419849	0.126127	0.699032	0.0607812	0.900254	0.0532213
0.280124	0.124974	0.00515706	0.840992	0.280174	0.129871	0.450554	0.116226	0.559597	0.123186	0.838846	0.0660484	0.143146	0.699664	0.419972	0.138738	0.699092	0.0673358	0.900306	0.0588216
0.280246	0.136777	0.00596731	0.897382	0.2803	0.141677	0.450668	0.127773	0.559717	0.135342	0.838911	0.0723864	0.143827	0.76151	0.420108	0.151361	0.699158	0.0739265	0.900364	0.0644559
0.280379	0.14859	0.00682923	0.951934	0.280438	0.153425	0.450792	0.139294	0.559849	0.147496	0.838981	0.0786904	0.144564	0.821629	0.420255	0.163936	0.69923	0.0805162	0.900426	0.0700849
0.280523	0.160351	0.00774113	1.00457	0.280586	0.165202	0.450928	0.150764	0.559992	0.159645	0.839058	0.0849996	0.145358	0.879978	0.420413	0.17649	0.699308	0.0871036	0.900494	0.0757032
0.280678	0.17208	0.00870114	1.05528	0.280745	0.176963	0.451073	0.162278	0.560146	0.171786	0.83914	0.0913191	0.146204	0.93647	0.420583	0.189073	0.699392	0.0936868	0.900568	0.0813735
0.280844	0.183821	0.00970753	1.1041	0.280916	0.188693	0.45123	0.173806	0.560312	0.183909	0.839228	0.0976592	0.146984	0.984249	0.420765	0.201641	0.699482	0.100261	0.900646	0.0870011
0.281021	0.195584	0.0107585	1.15107	0.281097	0.200436	0.451397	0.185292	0.560489	0.195998	0.839322	0.103967	0.147679	1.02389	0.420959	0.214178	0.699579	0.106818	0.90073	0.0926166
0.281208	0.207317	0.0118524	1.19615	0.281289	0.212129	0.451575	0.196763	0.560677	0.20809	0.839421	0.110285	0.148275	1.05577	0.421165	0.226657	0.699681	0.113414	0.900819	0.098208
0.281407	0.218992	0.0129874	1.23936	0.281492	0.223869	0.451764	0.208206	0.560877	0.220189	0.839527	0.116621	0.148758	1.08042	0.421381	0.239162	0.69979	0.120014	0.900913	0.103824
0.281616	0.230696	0.0141618	1.2808	0.281706	0.235558	0.451963	0.219668	0.561088	0.232228	0.839639	0.122922	0.14912	1.09844	0.42161	0.251648	0.699905	0.126549	0.901012	0.109491
0.281837	0.242385	0.015374	1.32049	0.281931	0.247218	0.452173	0.231091	0.561309	0.244223	0.839756	0.129224	0.149356	1.10983	0.42185	0.264096	0.700026	0.133099	0.901117	0.11511
0.282068	0.254044	0.0166224	1.3584	0.282167	0.25889	0.452394	0.242512	0.561543	0.256273	0.83988	0.13553	0.149698	1.12584	0.422102	0.27654	0.700153	0.139682	0.901227	0.12071
0.28231	0.265718	0.0179053	1.39468	0.282414	0.270517	0.452625	0.253929	0.561787	0.268289	0.840009	0.141843	0.150075	1.14303	0.422366	0.288978	0.700286	0.146256	0.901342	0.126344
0.282563	0.277345	0.0192212	1.42937	0.282671	0.282126	0.452867	0.265264	0.562043	0.280235	0.840144	0.148169	0.150598	1.16607	0.422641	0.301401	0.700426	0.152811	0.901462	0.13197
0.282827	0.288955	0.0205687	1.46249	0.282939	0.29377	0.453119	0.276654	0.562309	0.292188	0.840285	0.154451	0.151274	1.19462	0.422927	0.313725	0.700571	0.159403	0.901588	0.137585
0.283102	0.30053	0.0219464	1.49408	0.283218	0.305341	0.453382	0.288008	0.562587	0.304084	0.840432	0.160714	0.152112	1.22817	0.423225	0.326066	0.700723	0.165923	0.901718	0.143174
0.283387	0.312107	0.0233528	1.52424	0.283508	0.316909	0.453656	0.29929	0.562876	0.316011	0.840584	0.167016	0.153125	1.26619	0.423535	0.338445	0.70088	0.172444	0.901854	0.148785
0.283683	0.323689	0.0247867	1.55306	0.283809	0.328473	0.45394	0.310649	0.563176	0.327925	0.840743	0.17332	0.154325	1.30826	0.423856	0.350752	0.701044	0.17904	0.901996	0.154441
0.28399	0.335207	0.0262468	1.58053	0.28412	0.339957	0.454235	0.32194	0.563487	0.339741	0.840907	0.17963	0.155563	1.34856	0.424189	0.362987	0.701214	0.185568	0.902142	0.16004
0.284308	0.346745	0.0277318	1.60669	0.2844	0.350013	0.45454	0.33317	0.563809	0.351583	0.841078	0.185877	0.156838	1.38717	0.424532	0.375226	0.70139	0.192105	0.902294	0.165599
0.284636	0.358247	0.0292406	1.63168	0.284646	0.358581	0.454856	0.344425	0.564142	0.3634	0.841254	0.192147	0.158148	1.42416	0.424888	0.387473	0.701572	0.198661	0.902451	0.171224
0.284975	0.36968	0.0307723	1.65552	0.284853	0.365599	0.455182	0.355654	0.564486	0.375169	0.841436	0.19846	0.159491	1.45946	0.425254	0.399662	0.70176	0.20518	0.902613	0.176833
0.285325	0.381119	0.0323255	1.67823	0.28502	0.371137	0.455518	0.366833	0.564841	0.386916	0.841623	0.204714	0.160867	1.49323	0.425632	0.411809	0.701954	0.211699	0.90278	0.182413
0.285685	0.392572	0.0338995	1.6999	0.285144	0.37535	0.455865	0.377986	0.565207	0.398617	0.841817	0.210997	0.162274	1.52557	0.426022	0.423945	0.702154	0.21822	0.902953	0.188005
0.286057	0.40398	0.0354931	1.72055	0.285224	0.377986	0.456223	0.389158	0.565584	0.4103	0.842017	0.217265	0.16371	1.55642	0.426422	0.436057	0.702361	0.224742	0.90313	0.193624
0.286438	0.415369	0.0371055	1.74024	0.28534	0.381579	0.456591	0.400296	0.565972	0.421948	0.842222	0.2235	0.165174	1.58591	0.426834	0.448124	0.702573	0.231269	0.903314	0.199222
0.286831	0.426721	0.0387358	1.75903	0.285468	0.385686	0.456969	0.411367	0.56637	0.433599	0.842433	0.229747	0.166665	1.61409	0.427257	0.460172	0.702792	0.237804	0.903502	0.204778
0.287233	0.438074	0.0403833	1.777	0.285644	0.391332	0.457357	0.422449	0.56678	0.445182	0.84265	0.236013	0.168182	1.64097	0.427692	0.472184	0.703016	0.244282	0.903695	0.210397
0.287647	0.449353	0.0420471	1.7941	0.28587	0.398285	0.457756	0.43348	0.5672	0.456703	0.842873	0.242248	0.169723	1.66667	0.428137	0.484122	0.703247	0.250792	0.903894	0.215996
0.288071	0.460631	0.0437264	1.81043	0.286148	0.406737	0.458165	0.444482	0.567631	0.468245	0.843101	0.248491	0.171287	1.69124	0.428594	0.49606	0.703484	0.257293	0.904098	0.221553
0.288505	0.471908	0.0454206	1.82602	0.286483	0.416634	0.458584	0.455499	0.568072	0.479756	0.843336	0.254752	0.172874	1.71466	0.429062	0.507998	0.703726	0.263778	0.904307	0.227101
0.28895	0.483111	0.047129	1.84088	0.286876	0.428026	0.459014	0.466475	0.568525	0.491207	0.843576	0.260976	0.174482	1.73706	0.429541	0.519862	0.703975	0.270302	0.904521	0.232704
0.289405	0.494309	0.0488509	1.85507	0.28728	0.439362	0.459453	0.477368	0.568988	0.50261	0.843822	0.267198	0.176111	1.75848	0.43003	0.531651	0.70423	0.276759	0.90474	0.238271
0.289871	0.5055	0.0505857	1.86866	0.287695	0.450632	0.459903	0.488239	0.569461	0.513989	0.844074	0.273416	0.177759	1.7789	0.430531	0.543438	0.704491	0.283226	0.904965	0.243838
0.290347	0.516677	0.0523329	1.88162	0.28812	0.461907	0.460363	0.499143	0.569945	0.525322	0.844332	0.279627	0.179426	1.79844	0.430977	0.553691	0.704758	0.289716	0.905195	0.249406
0.290834	0.52775	0.0540919	1.89399	0.288555	0.473185	0.460833	0.509964	0.57044	0.536636	0.844595	0.285823	0.18111	1.81711	0.431363	0.562421	0.705031	0.296177	0.90543	0.254976
0.291331	0.538837	0.0558622	1.90585	0.289002	0.484426	0.461313	0.520766	0.570945	0.547911	0.844864	0.292062	0.182812	1.83498	0.431687	0.569617	0.70531	0.302654	0.90567	0.260549
0.291838	0.549951	0.0576432	1.91719	0.289458	0.495577	0.461804	0.53153	0.571461	0.559109	0.845139	0.298242	0.18453	1.85208	0.431946	0.57526	0.705595	0.30909	0.905915	0.266055
0.292356	0.560974	0.0594346	1.928	0.289925	0.506755	0.462239	0.540865	0.571987	0.570299	0.84542	0.30445	0.186263	1.8684	0.432138	0.579424	0.705886	0.315515	0.906165	0.271647
0.292883	0.57196	0.0612358	1.93833	0.290402	0.517947	0.462616	0.548881	0.572524	0.581472	0.845707	0.310639	0.188011	1.88402	0.432262	0.582142	0.706183	0.321994	0.906421	0.277193
0.293421	0.582945	0.0630465	1.94824	0.29089	0.529037	0.462932	0.555395	0.573071	0.592539	0.845999	0.316793	0.189774	1.89898	0.43244	0.585925	0.706486	0.328434	0.906682	0.282717
0.29397	0.593928	0.0648662	1.95774	0.291388	0.540111	0.463185	0.560627	0.573628	0.603613	0.846297	0.323021	0.19155	1.9133	0.432636	0.590032	0.706795	0.334868	0.906948	0.288271
0.294528	0.604836	0.0666945	1.96683	0.291897	0.551178	0.463372	0.564447	0.574195	0.614628	0.846601	0.329177	0.193339	1.92706	0.432904	0.59573	0.70711	0.341291	0.907219	0.293814
0.295097	0.615738	0.0685312	1.97551	0.292415	0.562241	0.463492	0.566779	0.574773	0.625599	0.84691	0.335339	0.195141	1.9402	0.433247	0.602828	0.707431	0.347692	0.907496	0.299334
0.295675	0.62663	0.0703757	1.98384	0.292944	0.57323	0.463666	0.57033	0.575361	0.636555	0.847226	0.341509	0.196954	1.95277	0.433668	0.611421	0.707757	0.354121	0.907777	0.30488
0.296264	0.637427	0.0722278	1.9918	0.293483	0.58418	0.463857	0.574183	0.575959	0.647407	0.847547	0.347625	0.198779	1.96485	0.434168	0.621435	0.70809	0.360535	0.908064	0.310405
0.296863	0.648254	0.0740872	1.99943	0.294033	0.595185	0.464118	0.579255	0.576567	0.658271	0.847873	0.353776	0.200616	1.97641	0.434752	0.632933	0.708429	0.366916	0.908355	0.315889
0.297472	0.659068	0.0759535	2.00679	0.294592	0.606108	0.464451	0.585755	0.577186	0.669086	0.848206	0.359927	0.202462	1.98754	0.435347	0.644359	0.708774	0.373307	0.908652	0.321437
0.298091	0.669784	0.0778266	2.01381	0.295162	0.616952	0.464859	0.593586	0.577814	0.679804	0.848544	0.366077	0.204319	1.9982	0.435953	0.655748	0.709125	0.379717	0.908954	0.326968
0.29872	0.680523	0.0797061	2.02054	0.295742	0.627831	0.465345	0.602789	0.57837	0.68919	0.848888	0.372224	0.206186	2.00843	0.436569	0.667119	0.709482	0.386091	0.909262	0.332462
0.299359	0.691233	0.0815917	2.02704	0.296332	0.63869	0.465911	0.613289	0.57885	0.697119	0.849238	0.378292	0.208062	2.01828	0.437196	0.678444	0.709844	0.392468	0.909574	0.337958
0.300008	0.701887	0.0834832	2.03322	0.296932	0.649503	0.466488	0.62374	0.579251	0.703566	0.849593	0.384423	0.209946	2.0277	0.437834	0.689709	0.710213	0.398849	0.909891	0.343456
0.300667	0.712575	0.0853803	2.03915	0.297542	0.660293	0.467074	0.634165	0.57957	0.708798	0.849954	0.390532	0.21184	2.03677	0.438481	0.700945	0.710588	0.405166	0.910214	0.348958
0.301336	0.723184	0.087283	2.04491	0.298163	0.671035	0.467669	0.644578	0.579807	0.712668	0.850321	0.396597	0.213742	2.04548	0.43914	0.712129	0.710968	0.411501	0.910542	0.354471
0.302015	0.733783	0.0891908	2.05036	0.298793	0.681752	0.468275	0.654911	0.579959	0.715008	0.850693	0.402723	0.215652	2.05386	0.439808	0.723214	0.711354	0.417873	0.910874	0.359929
0.302703	0.74436	0.0911036	2.05562	0.299433	0.692421	0.46889	0.665205	0.580178	0.71839	0.851071	0.408821	0.217569	2.0619	0.440487	0.734324	0.711747	0.424244	0.911212	0.365426
0.303402	0.754893	0.0930212	2.06072	0.300083	0.703102	0.469514	0.675442	0.580418	0.722214	0.851455	0.414865	0.219494	2.06966	0.441177	0.745371	0.712145	0.430541	0.911555	0.370927
0.30411	0.765413	0.0949435	2.06558	0.300743	0.713789	0.470148	0.685687	0.580746	0.727367	0.851844	0.420948	0.221426	2.07716	0.441876	0.756352	0.712549	0.436835	0.911903	0.376362
0.304735	0.774587	0.0968702	2.07023	0.301413	0.724406	0.470792	0.695901	0.581164	0.733785	0.852239	0.427034	0.223364	2.08435	0.442586	0.767298	0.712959	0.443199	0.912257	0.381812
0.305274	0.782368	0.0988012	2.07471	0.302093	0.734988	0.471445	0.706024	0.581674	0.741566	0.85264	0.433053	0.225309	2.09124	0.443306	0.778192	0.713375	0.449482	0.912615	0.387291
0.305724	0.788786	0.100736	2.07906	0.302783	0.745553	0.472108	0.716103	0.58228	0.750672	0.853046	0.439086	0.227261	2.09791	0.444036	0.789058	0.713796	0.455747	0.912978	0.392758
0.306082	0.793832	0.102675	2.08321	0.303482	0.756108	0.472779	0.726196	0.582984	0.761038	0.853458	0.445147	0.229219	2.10432	0.444776	0.799875	0.714169	0.461259	0.913347	0.398198
0.306347	0.797657	0.104618	2.08719	0.304192	0.766623	0.473461	0.736223	0.583698	0.771421	0.853876	0.451189	0.231182	2.11053	0.445527	0.81063	0.71449	0.465931	0.91372	0.403658
0.306517	0.800049	0.106565	2.09105	0.304911	0.777117	0.474151	0.746181	0.584422	0.781703	0.854299	0.457194	0.233151	2.11653	0.446287	0.821317	0.714757	0.469801	0.914099	0.409084
0.306762	0.803356	0.108514	2.09474	0.30564	0.787601	0.474851	0.756103	0.585155	0.791898	0.854728	0.463198	0.235126	2.12224	0.447057	0.831971	0.714971	0.47286	0.914483	0.414517
0.30703	0.807102	0.110468	2.09831	0.306378	0.798043	0.47556	0.766008	0.585897	0.802086	0.855162	0.469201	0.237106	2.12777	0.447837	0.842572	0.715128	0.474919	0.914871	0.419962
0.307396	0.812229	0.112424	2.10173	0.307127	0.808464	0.476279	0.775868	0.58665	0.81227	0.855602	0.475201	0.239091	2.13317	0.448627	0.853145	0.71523	0.476417	0.915265	0.42536
0.307863	0.818587	0.114384	2.10503	0.307885	0.818875	0.477006	0.785632	0.587411	0.822342	0.856047	0.481194	0.241081	2.13836	0.449427	0.863669	0.715376	0.478629	0.915664	0.430809
0.308432	0.826277	0.116094	2.10782	0.308653	0.829281	0.477742	0.795421	0.588182	0.832359	0.856499	0.487175	0.243076	2.1433	0.450236	0.874094	0.715535	0.480753	0.916068	0.436213
0.309107	0.835364	0.117554	2.11008	0.30943	0.839647	0.478488	0.80515	0.588962	0.842384	0.856955	0.493132	0.245075	2.14811	0.451056	0.884507	0.715754	0.483812	0.916477	0.441603
0.30989	0.845722	0.118762	2.11187	0.310217	0.849994	0.479243	0.814811	0.589752	0.852304	0.857417	0.499112	0.247078	2.15279	0.451885	0.894914	0.716032	0.487682	0.916891	0.447035
0.310683	0.856064	0.119718	2.1134	0.311014	0.860331	0.480006	0.824403	0.59055	0.862172	0.857885	0.505066	0.249086	2.15729	0.452723	0.905207	0.716371	0.492316	0.91731	0.452407
0.311485	0.866399	0.120422	2.11437	0.31182	0.870663	0.480779	0.833996	0.591358	0.872049	0.858359	0.510968	0.251098	2.16162	0.453571	0.915444	0.716773	0.497725	0.917734	0.457803
0.312297	0.876693	0.120872	2.11495	0.312636	0.880993	0.48156	0.843553	0.592175	0.881822	0.858776	0.516178	0.253114	2.1658	0.454429	0.925653	0.717239	0.503966	0.918163	0.463175
0.313119	0.887004	0.12152	2.11603	0.313462	0.891248	0.482351	0.85302	0.593001	0.891506	0.859134	0.520589	0.255134	2.16984	0.455296	0.935812	0.717712	0.5102	0.918597	0.468573
0.31395	0.897323	0.122224	2.11706	0.314297	0.901539	0.48315	0.862477	0.593836	0.901181	0.859433	0.52418	0.257157	2.17376	0.456173	0.945908	0.71819	0.516393	0.919036	0.473948
0.314791	0.907573	0.123182	2.1183	0.315142	0.911848	0.483958	0.871856	0.594681	0.910853	0.859671	0.527077	0.259184	2.17759	0.457059	0.955973	0.718674	0.522602	0.91948	0.479279
0.315641	0.917824	0.124395	2.11997	0.315996	0.922093	0.484775	0.881197	0.595534	0.920413	0.859847	0.52931	0.261215	2.18122	0.457954	0.965986	0.719164	0.528819	0.919929	0.484668
0.316501	0.928114	0.125863	2.12192	0.31686	0.932379	0.4856	0.890518	0.596396	0.929917	0.85996	0.530622	0.263249	2.18476	0.458859	0.975936	0.719659	0.535004	0.920324	0.489312
0.317371	0.938386	0.127587	2.12416	0.317734	0.942649	0.486434	0.899793	0.597266	0.939394	0.860122	0.532507	0.265286	2.18818	0.459773	0.985855	0.720161	0.541136	0.920664	0.493259
0.31825	0.948648	0.129567	2.12659	0.318617	0.952874	0.487277	0.908971	0.598146	0.948783	0.8603	0.534649	0.267326	2.1915	0.460696	0.995686	0.720668	0.547315	0.920948	0.496582
0.319138	0.958907	0.131549	2.12897	0.319509	0.963114	0.488128	0.918138	0.599034	0.958128	0.860543	0.537416	0.26937	2.19473	0.461628	1.00551	0.721181	0.553517	0.921173	0.499197
0.320037	0.969126	0.133534	2.1313	0.320411	0.973397	0.488987	0.927263	0.599931	0.967452	0.860851	0.54108	0.271416	2.19778	0.46257	1.01525	0.721699	0.559658	0.921339	0.501014
0.320944	0.9794	0.135521	2.13345	0.321323	0.983666	0.489856	0.936293	0.600837	0.976728	0.861227	0.545488	0.273465	2.20076	0.46352	1.02492	0.722224	0.565768	0.921446	0.502229
0.321862	0.9897	0.13751	2.13559	0.322244	0.993927	0.490732	0.945349	0.601751	0.985907	0.861672	0.550583	0.275517	2.20369	0.464479	1.03459	0.722753	0.571899	0.9216	0.504058
0.322788	0.999977	0.1395	2.13765	0.323175	1.00422	0.491617	0.954308	0.602674	0.995037	0.862188	0.556462	0.277571	2.2065	0.465448	1.04419	0.723289	0.578004	0.921768	0.505966
0.323725	1.01024	0.141493	2.13959	0.324115	1.01453	0.49251	0.963219	0.603606	1.00411	0.862709	0.56233	0.279628	2.20923	0.466425	1.05371	0.723831	0.584133	0.921998	0.508527
0.324671	1.02054	0.143487	2.14151	0.325066	1.02481	0.493412	0.972105	0.604545	1.01315	0.863236	0.568194	0.281688	2.21187	0.467411	1.06319	0.724378	0.590237	0.92229	0.511794
0.325627	1.03085	0.145483	2.14336	0.326025	1.03512	0.494322	0.980906	0.605494	1.02217	0.863768	0.574019	0.28375	2.21437	0.468406	1.07266	0.72493	0.596291	0.922645	0.515762
0.326592	1.04121	0.147481	2.14512	0.326994	1.04551	0.49524	0.989701	0.60645	1.03108	0.864305	0.579825	0.285814	2.21682	0.46941	1.08204	0.725489	0.602395	0.923066	0.520383
0.327567	1.05158	0.149481	2.14681	0.327973	1.05587	0.496166	0.99842	0.607415	1.03992	0.864848	0.585658	0.287881	2.21922	0.470422	1.09139	0.726053	0.608486	0.923553	0.525683
0.328551	1.06194	0.151481	2.14842	0.328962	1.06625	0.4971	1.0071	0.608388	1.04878	0.865397	0.591503	0.28995	2.22152	0.471444	1.10067	0.726623	0.614535	0.924046	0.531007
0.329546	1.07235	0.153484	2.14999	0.32996	1.07671	0.498043	1.01573	0.609369	1.05756	0.865951	0.59732	0.29202	2.22377	0.472473	1.10989	0.727198	0.620562	0.924543	0.536305
0.330549	1.08283	0.155488	2.15155	0.330968	1.08718	0.498993	1.02429	0.610359	1.06624	0.86651	0.603084	0.294093	2.22592	0.473512	1.11908	0.727779	0.626579	0.925045	0.541555
0.331563	1.09331	0.157493	2.15302	0.331986	1.09768	0.499951	1.03285	0.611356	1.0749	0.867074	0.608859	0.296168	2.22798	0.474559	1.12822	0.728366	0.632627	0.925552	0.546853
0.332587	1.10386	0.1595	2.15442	0.333014	1.10821	0.500918	1.04135	0.612361	1.08352	0.867644	0.61464	0.298245	2.23	0.475614	1.13729	0.728958	0.638653	0.926064	0.552139
0.33362	1.11444	0.161508	2.15578	0.334051	1.11882	0.501892	1.04977	0.613375	1.09204	0.86822	0.620387	0.300324	2.23197	0.476678	1.14633	0.729556	0.64467	0.926581	0.557381
0.334663	1.12504	0.163517	2.15708	0.335098	1.12951	0.502874	1.05812	0.614396	1.10054	0.8688	0.62619	0.302404	2.23383	0.47775	1.15532	0.730159	0.650644	0.927103	0.56264
0.335717	1.13576	0.165527	2.15835	0.336156	1.1402	0.503863	1.06647	0.615426	1.10901	0.869386	0.631911	0.304486	2.23563	0.478831	1.16424	0.730768	0.656598	0.927629	0.567869
0.33678	1.14651	0.167539	2.15958	0.337223	1.15097	0.504861	1.07478	0.616463	1.11738	0.869978	0.637628	0.30657	2.23742	0.47992	1.17314	0.731383	0.662614	0.928161	0.57312
