Sym0		Asym0		Sym1		Sym2		Sym3		Sym4		Asym1		Asym2		Asym3		Asym4	
425  Points		529  Points		424  Points		407  Points		353  Points		252  Points		456  Points		401  Points		345  Points		207  Points	
Freq (MHz)	Vgr (m/ms)	Freq (MHz)	Vgr (m/ms)	Freq (MHz)	Vgr (m/ms)	Freq (MHz)	Vgr (m/ms)	Freq (MHz)	Vgr (m/ms)	Freq (MHz)	Vgr (m/ms)	Freq (MHz)	Vgr (m/ms)	Freq (MHz)	Vgr (m/ms)	Freq (MHz)	Vgr (m/ms)	Freq (MHz)	Vgr (m/ms)
0.279509	0.0104046	2.07382e-005	0.0913505	0.279514	0.0169809	0.449888	0.00627073	0.559017	0.00695883	0.838526	0.00565413	0.139755	0.046803	0.419268	0.0181675	0.698771	0.00459166	0.899777	0.00518351
0.279519	0.0161568	0.000105849	0.126457	0.279529	0.0227376	0.449894	0.0120184	0.559023	0.0129907	0.838531	0.00878361	0.139799	0.0823881	0.419285	0.0243743	0.698776	0.0077808	0.899782	0.00802169
0.279539	0.0276273	0.000256376	0.196472	0.279556	0.0342217	0.44991	0.0235483	0.559041	0.0250073	0.838542	0.0150226	0.139909	0.153474	0.419313	0.0367691	0.698786	0.0141988	0.899792	0.0136798
0.279571	0.0391424	0.000471954	0.265972	0.279593	0.0456908	0.449938	0.0351093	0.55907	0.0370287	0.838559	0.0212019	0.140085	0.224163	0.419353	0.0491808	0.698802	0.0206628	0.899807	0.0192831
0.279612	0.0506737	0.000751985	0.334731	0.279641	0.0572032	0.449976	0.0466589	0.55911	0.0490597	0.838582	0.027408	0.140326	0.294201	0.419405	0.0616263	0.698824	0.0271454	0.899828	0.0249233
0.279665	0.062164	0.00109569	0.402596	0.2797	0.068729	0.450025	0.0581859	0.559161	0.0611101	0.83861	0.0336678	0.140633	0.363453	0.419468	0.074066	0.698853	0.033592	0.899853	0.030564
0.279728	0.0736456	0.00150218	0.469333	0.279769	0.0802084	0.450084	0.0697408	0.559224	0.073126	0.838645	0.0398888	0.141003	0.431719	0.419543	0.0864943	0.698887	0.0400399	0.899885	0.0361326
0.279802	0.0851097	0.00197024	0.534838	0.279849	0.0916682	0.450155	0.0812783	0.559298	0.085146	0.838685	0.046105	0.141437	0.498815	0.419629	0.0988997	0.698927	0.0464905	0.899921	0.0417767
0.279887	0.0966123	0.00249879	0.59905	0.27994	0.103162	0.450236	0.0927812	0.559383	0.0971743	0.838731	0.0523119	0.141933	0.564673	0.419727	0.111259	0.698974	0.0529463	0.899962	0.0474251
0.279982	0.108118	0.0030865	0.661702	0.280041	0.11465	0.450328	0.104288	0.559479	0.109146	0.838782	0.0585001	0.142489	0.629153	0.419837	0.123674	0.699026	0.0594127	0.900009	0.0530091
0.280088	0.119558	0.0037318	0.722774	0.280154	0.126128	0.45043	0.115802	0.559586	0.121151	0.83884	0.0647241	0.143105	0.692047	0.419958	0.136052	0.699084	0.0658268	0.900061	0.0586106
0.280205	0.131012	0.00443331	0.782223	0.280276	0.137585	0.450543	0.127332	0.559705	0.133148	0.838903	0.0709467	0.143779	0.753311	0.42009	0.14843	0.699149	0.0722831	0.900118	0.0642473
0.280332	0.142493	0.00518939	0.83989	0.28041	0.148999	0.450667	0.138819	0.559834	0.145132	0.838972	0.0771661	0.144509	0.812922	0.420234	0.160808	0.699219	0.0787503	0.900181	0.0698809
0.280471	0.153957	0.00599835	0.895751	0.280554	0.160475	0.450802	0.150293	0.559975	0.157088	0.839047	0.0833795	0.145294	0.870769	0.42039	0.173113	0.699295	0.0851661	0.900249	0.0755086
0.280619	0.165387	0.00685852	0.949758	0.280709	0.171929	0.450947	0.161743	0.560127	0.169062	0.839127	0.0895806	0.146132	0.926769	0.420557	0.185493	0.699378	0.0916256	0.900322	0.0811244
0.280779	0.17682	0.00776812	1.00196	0.280874	0.183336	0.451103	0.173218	0.56029	0.180997	0.839213	0.0957572	0.146904	0.974151	0.420736	0.1978	0.699466	0.0980994	0.9004	0.0867162
0.280949	0.188259	0.00872557	1.05224	0.281051	0.194726	0.45127	0.184669	0.560464	0.192928	0.839306	0.101958	0.147592	1.01344	0.420926	0.210109	0.69956	0.104528	0.900483	0.0923335
0.28113	0.19964	0.00972887	1.10066	0.281237	0.206152	0.451448	0.196071	0.56065	0.204853	0.839403	0.108208	0.148181	1.04514	0.421127	0.222423	0.699661	0.110941	0.900572	0.0979284
0.281321	0.211049	0.0107765	1.14725	0.281435	0.217578	0.451636	0.207524	0.560846	0.216691	0.839507	0.114408	0.148659	1.06962	0.42134	0.234672	0.699767	0.117394	0.900666	0.103552
0.281523	0.222442	0.0118666	1.19193	0.281643	0.228933	0.451834	0.218929	0.561053	0.228575	0.839617	0.120582	0.149018	1.08742	0.421564	0.24694	0.69988	0.123855	0.900765	0.109159
0.281735	0.2338	0.0129976	1.2348	0.281861	0.240289	0.452044	0.230313	0.561272	0.240477	0.839732	0.126779	0.149251	1.09867	0.4218	0.259171	0.699998	0.130259	0.900869	0.114733
0.281958	0.245165	0.0141675	1.27593	0.282091	0.251648	0.452263	0.241657	0.561501	0.252344	0.839853	0.132948	0.14959	1.11454	0.422047	0.271402	0.700122	0.136695	0.900979	0.120389
0.282192	0.256542	0.0153751	1.31534	0.28233	0.263013	0.452494	0.252992	0.561742	0.264138	0.83998	0.139132	0.149964	1.1317	0.422306	0.283633	0.700253	0.14312	0.901093	0.125989
0.282436	0.267871	0.0166185	1.353	0.282581	0.274319	0.452735	0.264382	0.561994	0.275934	0.840112	0.145349	0.150481	1.1546	0.422576	0.295789	0.700389	0.149526	0.901213	0.131547
0.282691	0.279175	0.0178963	1.38905	0.282841	0.285652	0.452986	0.275664	0.562256	0.287735	0.84025	0.151557	0.15115	1.18289	0.422857	0.307942	0.700531	0.155966	0.901339	0.137171
0.282957	0.290505	0.0192069	1.42352	0.283113	0.296964	0.453249	0.286948	0.56253	0.299472	0.840395	0.157748	0.15198	1.21623	0.42315	0.320092	0.70068	0.1624	0.901469	0.142779
0.283233	0.301811	0.0205488	1.45641	0.283395	0.308236	0.453521	0.298236	0.562814	0.311227	0.840544	0.163903	0.152983	1.25402	0.423454	0.332159	0.700834	0.168823	0.901605	0.148356
0.283519	0.313072	0.0219207	1.48785	0.283687	0.3195	0.453804	0.30946	0.56311	0.322945	0.8407	0.170061	0.154172	1.29574	0.423769	0.344282	0.700994	0.175223	0.901745	0.153943
0.283816	0.324314	0.0233213	1.51785	0.28399	0.330749	0.454098	0.320702	0.563416	0.334662	0.840861	0.176225	0.155398	1.33579	0.424095	0.356369	0.70116	0.181652	0.901891	0.159551
0.284123	0.335591	0.0247491	1.5465	0.284263	0.340525	0.454402	0.331908	0.563733	0.346304	0.841028	0.182401	0.156661	1.37416	0.424433	0.368385	0.701333	0.188064	0.902043	0.165126
0.284441	0.346794	0.026203	1.57384	0.284501	0.348847	0.454716	0.343112	0.564061	0.357943	0.841201	0.188601	0.157958	1.41088	0.424782	0.380406	0.701511	0.194443	0.902199	0.170711
0.28477	0.357994	0.0276818	1.59989	0.284703	0.35574	0.455041	0.354242	0.5644	0.369574	0.84138	0.194774	0.15929	1.44602	0.425142	0.392363	0.701695	0.200829	0.902361	0.176314
0.285108	0.369187	0.0291842	1.6248	0.284865	0.36115	0.455376	0.365369	0.56475	0.381119	0.841564	0.200894	0.160653	1.47963	0.425513	0.404339	0.701885	0.207228	0.902528	0.181881
0.285458	0.380368	0.0307094	1.64855	0.284986	0.365177	0.455722	0.37649	0.56511	0.392709	0.841754	0.207056	0.162047	1.51174	0.425895	0.416279	0.702081	0.213655	0.9027	0.187449
0.285817	0.391523	0.0322561	1.67116	0.285064	0.367823	0.456078	0.387526	0.565482	0.404243	0.84195	0.213228	0.16347	1.54241	0.426288	0.428146	0.702283	0.220064	0.902877	0.193017
0.286187	0.402627	0.0338234	1.69278	0.285177	0.371437	0.456444	0.398611	0.565864	0.415739	0.842151	0.219347	0.164921	1.57173	0.426693	0.440016	0.702491	0.226436	0.903059	0.198588
0.286567	0.413776	0.0354104	1.7134	0.285301	0.375387	0.456821	0.409648	0.566256	0.427232	0.842359	0.225505	0.166399	1.59976	0.427108	0.45189	0.702705	0.232808	0.903247	0.204163
0.286958	0.424868	0.0370162	1.73304	0.285473	0.380905	0.457207	0.420589	0.56666	0.438646	0.842572	0.231668	0.167902	1.62655	0.427535	0.463699	0.702925	0.239179	0.90344	0.209747
0.287359	0.435918	0.0386398	1.75179	0.285692	0.387667	0.457604	0.43156	0.567074	0.450048	0.84279	0.237768	0.16943	1.65211	0.427972	0.475454	0.703151	0.24555	0.903638	0.215276
0.28777	0.44696	0.0402804	1.76968	0.285964	0.395948	0.458012	0.442514	0.567498	0.461426	0.843015	0.243891	0.17098	1.6765	0.428421	0.48717	0.703383	0.25192	0.903841	0.220839
0.288192	0.457984	0.0419374	1.78678	0.286289	0.405643	0.458429	0.453435	0.567934	0.472756	0.843245	0.250056	0.172554	1.69982	0.42888	0.498884	0.70362	0.258287	0.904049	0.2264
0.288624	0.468971	0.0436099	1.8031	0.286672	0.416765	0.458857	0.464292	0.568379	0.484065	0.843481	0.256162	0.174148	1.7221	0.42935	0.510592	0.703864	0.264649	0.904263	0.231955
0.289066	0.47996	0.0452972	1.81868	0.287066	0.427856	0.459294	0.475093	0.568836	0.495329	0.843722	0.262293	0.175762	1.74343	0.429832	0.522218	0.704113	0.271003	0.904482	0.237499
0.289518	0.490952	0.0469988	1.83357	0.287469	0.438895	0.459742	0.485928	0.569302	0.506578	0.843969	0.268404	0.177397	1.76376	0.430323	0.533824	0.704369	0.277337	0.904705	0.24302
0.289981	0.501876	0.0487139	1.84776	0.287883	0.449944	0.4602	0.496686	0.56978	0.517797	0.844222	0.274474	0.179049	1.78319	0.430761	0.543893	0.70463	0.283706	0.904934	0.24857
0.290453	0.51281	0.0504419	1.86135	0.288308	0.460962	0.460667	0.507434	0.570267	0.528956	0.844481	0.280608	0.180719	1.8018	0.43114	0.552445	0.704898	0.290073	0.905169	0.254102
0.290936	0.523693	0.0521823	1.87432	0.288742	0.471964	0.461145	0.518164	0.570765	0.540069	0.844745	0.286723	0.182406	1.81953	0.431459	0.5595	0.705171	0.296361	0.905408	0.259674
0.291429	0.534546	0.0539345	1.88672	0.289187	0.482958	0.461633	0.528784	0.571274	0.55116	0.845015	0.292802	0.18411	1.83656	0.431713	0.565201	0.70545	0.302712	0.905652	0.265177
0.291932	0.545411	0.055698	1.89861	0.289642	0.493911	0.462066	0.538063	0.571792	0.562211	0.845291	0.298879	0.185829	1.8528	0.431902	0.569222	0.705735	0.309042	0.905902	0.27069
0.292446	0.556228	0.0574724	1.90994	0.290108	0.504808	0.462441	0.545965	0.572321	0.573252	0.845572	0.304955	0.187562	1.86832	0.432023	0.571808	0.706026	0.31533	0.906157	0.276224
0.292969	0.567023	0.059257	1.9208	0.290583	0.51575	0.462755	0.552406	0.57286	0.584201	0.845859	0.311028	0.18931	1.88326	0.432199	0.575568	0.706322	0.321679	0.906417	0.281725
0.293502	0.577773	0.0610516	1.93119	0.291069	0.52664	0.463007	0.557558	0.57341	0.595114	0.846152	0.317094	0.191072	1.8975	0.432391	0.579647	0.706625	0.328007	0.906682	0.287234
0.294045	0.588506	0.0628555	1.94111	0.291564	0.537469	0.463193	0.561437	0.573969	0.606027	0.84645	0.323147	0.192846	1.91114	0.432655	0.585269	0.706934	0.334289	0.906952	0.292759
0.294599	0.599279	0.0646686	1.95064	0.29207	0.54834	0.463313	0.563758	0.574539	0.616866	0.846754	0.329248	0.194633	1.92419	0.432992	0.592229	0.707248	0.340555	0.907227	0.298243
0.295162	0.609985	0.0664903	1.95973	0.292586	0.559159	0.463486	0.56719	0.575119	0.627704	0.847063	0.335297	0.196431	1.93672	0.433405	0.600716	0.707568	0.346861	0.907508	0.303717
0.295735	0.62063	0.0683203	1.96846	0.293112	0.569915	0.463675	0.571031	0.575709	0.638467	0.847379	0.341315	0.198242	1.94877	0.433896	0.610577	0.707894	0.353175	0.907793	0.309245
0.296319	0.631301	0.0701583	1.97684	0.293648	0.580713	0.463935	0.57605	0.576309	0.649152	0.847699	0.347347	0.200063	1.96025	0.43447	0.621914	0.708226	0.359431	0.908084	0.314735
0.296912	0.641948	0.072004	1.98489	0.294194	0.591458	0.464266	0.582473	0.576918	0.65983	0.848026	0.353404	0.201894	1.97126	0.435055	0.633149	0.708564	0.365716	0.90838	0.320222
0.297515	0.65255	0.073857	1.99256	0.29475	0.602141	0.464672	0.590202	0.577538	0.670493	0.848358	0.359439	0.203736	1.9819	0.43565	0.644406	0.708908	0.371989	0.908681	0.325702
0.298128	0.663133	0.0757169	1.99993	0.295316	0.612866	0.465155	0.599346	0.578086	0.679711	0.848696	0.365431	0.205587	1.99205	0.436256	0.655601	0.709257	0.378234	0.908987	0.331168
0.29875	0.673679	0.0775836	2.00703	0.295892	0.623538	0.465718	0.609702	0.578559	0.687548	0.849039	0.371482	0.207448	2.00181	0.436872	0.666728	0.709613	0.384501	0.909298	0.336609
0.299383	0.684224	0.0794568	2.01378	0.296478	0.634185	0.466291	0.620044	0.578955	0.694096	0.849388	0.377503	0.209318	2.0112	0.437498	0.677822	0.709974	0.390734	0.909614	0.34207
0.300025	0.694768	0.0813361	2.02031	0.297074	0.644818	0.466873	0.630342	0.57927	0.699174	0.849742	0.383468	0.211196	2.02018	0.438135	0.688861	0.710341	0.396976	0.909935	0.347572
0.300678	0.705235	0.0832214	2.02656	0.29768	0.655408	0.467466	0.640581	0.579503	0.702711	0.850102	0.389465	0.213082	2.02884	0.438782	0.699911	0.710713	0.403234	0.910262	0.35301
0.30134	0.715695	0.0851123	2.03254	0.298295	0.665976	0.468067	0.650828	0.579653	0.705189	0.850468	0.395453	0.214976	2.03716	0.439439	0.710893	0.711092	0.409451	0.910593	0.358465
0.302011	0.726143	0.0870088	2.03835	0.298921	0.676534	0.468678	0.660968	0.57987	0.708775	0.850839	0.401423	0.216878	2.04517	0.440107	0.721803	0.711476	0.415659	0.91093	0.363883
0.302693	0.736564	0.0889106	2.04389	0.299556	0.687086	0.469299	0.671092	0.580106	0.712416	0.851216	0.40743	0.218787	2.05284	0.440784	0.732715	0.711867	0.421849	0.911271	0.369299
0.303384	0.747007	0.0908174	2.04919	0.300201	0.697599	0.469929	0.681244	0.58043	0.717493	0.851598	0.413364	0.220703	2.06026	0.441472	0.743554	0.712262	0.428078	0.911618	0.374785
0.303994	0.756037	0.092729	2.05429	0.300856	0.708056	0.470568	0.691264	0.580842	0.723887	0.851986	0.419301	0.222626	2.06741	0.44217	0.754321	0.712664	0.434309	0.911969	0.380189
0.30452	0.763765	0.0946453	2.05922	0.30152	0.718521	0.471217	0.701255	0.581346	0.731606	0.85238	0.425316	0.224556	2.07425	0.442877	0.765087	0.713072	0.440473	0.912326	0.385579
0.304959	0.770084	0.0965661	2.06396	0.302195	0.72899	0.471875	0.71123	0.581943	0.740562	0.852779	0.431266	0.226491	2.08081	0.443595	0.77578	0.713485	0.446649	0.912688	0.39101
0.305308	0.775078	0.0984913	2.06852	0.302879	0.739389	0.472542	0.721162	0.582638	0.750884	0.853183	0.43716	0.228433	2.08717	0.444323	0.786437	0.71385	0.452003	0.913055	0.396454
0.305567	0.778803	0.100421	2.07288	0.303572	0.749788	0.473219	0.731035	0.583343	0.761135	0.853593	0.44309	0.23038	2.09336	0.445061	0.797075	0.714164	0.456641	0.913427	0.401848
0.305733	0.781178	0.102354	2.07707	0.304276	0.760188	0.473904	0.740842	0.584056	0.771278	0.854009	0.449016	0.232334	2.09927	0.445808	0.807631	0.714427	0.460377	0.913803	0.407217
0.305973	0.784625	0.104291	2.08111	0.304989	0.770551	0.474599	0.750653	0.58478	0.78144	0.85443	0.454935	0.234292	2.10493	0.446566	0.818146	0.714636	0.463433	0.914185	0.412607
0.306234	0.788284	0.106232	2.08504	0.305712	0.780897	0.475303	0.760356	0.585513	0.791538	0.854857	0.460841	0.236256	2.1104	0.447333	0.82864	0.71479	0.465669	0.914572	0.417967
0.306592	0.79328	0.108176	2.08878	0.306444	0.791196	0.476016	0.770078	0.586255	0.801567	0.855289	0.466721	0.238225	2.1157	0.44811	0.839051	0.71489	0.466993	0.914964	0.423341
0.307048	0.799644	0.110124	2.09238	0.307186	0.80151	0.476738	0.779736	0.587006	0.811562	0.855726	0.472621	0.240198	2.12084	0.448896	0.84942	0.715033	0.468996	0.915361	0.428742
0.307604	0.807245	0.112075	2.09585	0.307938	0.811793	0.477469	0.789326	0.587767	0.821504	0.85617	0.478489	0.242177	2.12575	0.449693	0.859768	0.715189	0.471214	0.915763	0.434125
0.308263	0.8162	0.114029	2.0992	0.308699	0.822062	0.478209	0.798882	0.588537	0.831418	0.856618	0.484365	0.244159	2.13052	0.450498	0.870032	0.715403	0.474217	0.91617	0.43947
0.309028	0.82648	0.115987	2.10245	0.309469	0.832323	0.478958	0.808384	0.589316	0.841283	0.857072	0.490258	0.246147	2.13513	0.451314	0.880255	0.715676	0.478007	0.916582	0.444814
0.309803	0.836746	0.117695	2.10516	0.31025	0.842581	0.479715	0.817859	0.590105	0.851049	0.857532	0.49611	0.248138	2.13953	0.452139	0.890457	0.716008	0.482539	0.916999	0.450156
0.310588	0.84697	0.119153	2.1074	0.311039	0.8528	0.480482	0.827284	0.590902	0.860803	0.857997	0.501956	0.250133	2.14381	0.452973	0.900611	0.716402	0.487888	0.917421	0.455491
0.311382	0.857172	0.120359	2.10924	0.311839	0.863	0.481257	0.836647	0.591709	0.870514	0.858406	0.507	0.252133	2.14797	0.453817	0.910705	0.716859	0.493985	0.917848	0.460816
0.312185	0.8674	0.121314	2.11062	0.312648	0.873227	0.482041	0.845943	0.592524	0.88013	0.858759	0.511379	0.254136	2.15195	0.45467	0.920733	0.717323	0.500109	0.91828	0.46612
0.312998	0.877641	0.122017	2.11163	0.313466	0.883431	0.482833	0.855242	0.593349	0.889735	0.859052	0.514994	0.256143	2.15581	0.455533	0.930727	0.717791	0.506248	0.918716	0.471454
0.31382	0.887779	0.122466	2.1123	0.314294	0.893623	0.483634	0.864506	0.594182	0.899299	0.859286	0.517684	0.258153	2.15954	0.456404	0.940668	0.718266	0.51232	0.919158	0.476774
0.314652	0.897975	0.123113	2.11322	0.315131	0.903809	0.484444	0.873679	0.595024	0.908768	0.859459	0.519789	0.260167	2.16312	0.457285	0.950546	0.718746	0.518396	0.919605	0.482068
0.315494	0.908199	0.123817	2.11415	0.315978	0.913993	0.485262	0.88277	0.595876	0.91819	0.859569	0.521192	0.262184	2.1666	0.458176	0.960392	0.719232	0.52451	0.919998	0.486678
0.316344	0.918365	0.124773	2.11545	0.316834	0.924138	0.486089	0.891856	0.596735	0.927589	0.859729	0.523097	0.264204	2.16998	0.459075	0.970186	0.719723	0.53057	0.920336	0.490627
0.317205	0.928502	0.125985	2.11715	0.3177	0.934302	0.486924	0.900904	0.597604	0.936939	0.859904	0.525209	0.266227	2.17325	0.459983	0.979953	0.72022	0.536639	0.920618	0.493862
0.318075	0.938698	0.127451	2.11904	0.318575	0.94451	0.487768	0.909895	0.598481	0.946228	0.860142	0.528005	0.268254	2.17638	0.460901	0.989634	0.720723	0.542714	0.920842	0.49648
0.318954	0.948886	0.129172	2.1212	0.31946	0.954705	0.48862	0.918822	0.599367	0.95545	0.860445	0.531531	0.270283	2.17942	0.461828	0.999272	0.721232	0.548717	0.921008	0.498328
0.319843	0.959033	0.13115	2.12365	0.320354	0.964856	0.48948	0.927717	0.600262	0.964639	0.860815	0.535871	0.272315	2.18236	0.462763	1.00889	0.721746	0.554758	0.921114	0.4995
0.320741	0.969234	0.133129	2.12597	0.321258	0.975021	0.490348	0.936559	0.601165	0.973775	0.861252	0.540882	0.274349	2.18522	0.463707	1.01846	0.722266	0.560818	0.921267	0.501236
0.321649	0.979425	0.135111	2.12823	0.322171	0.985231	0.491225	0.945337	0.602076	0.982847	0.861758	0.546674	0.276387	2.18798	0.464661	1.02797	0.722791	0.566815	0.921434	0.503063
0.322566	0.989611	0.137095	2.13042	0.323094	0.995463	0.49211	0.954085	0.602996	0.991851	0.86227	0.552464	0.278426	2.1906	0.465623	1.03737	0.723322	0.572816	0.921662	0.505681
0.323493	0.99983	0.139081	2.13247	0.324026	1.00567	0.493003	0.96278	0.603924	1.00082	0.862788	0.558215	0.280469	2.19319	0.466594	1.04676	0.723858	0.578819	0.921953	0.508983
0.324429	1.01003	0.141069	2.13452	0.324968	1.0159	0.493904	0.971449	0.604861	1.00974	0.86331	0.563947	0.282513	2.19569	0.467573	1.05614	0.7244	0.584824	0.922306	0.512809
0.325375	1.02029	0.143058	2.13649	0.325919	1.02614	0.494813	0.980031	0.605806	1.01859	0.863839	0.569706	0.28456	2.19808	0.468562	1.06545	0.724948	0.590829	0.922724	0.517382
0.32633	1.03059	0.14505	2.13832	0.32688	1.03639	0.49573	0.98857	0.606759	1.02741	0.864372	0.575442	0.286609	2.20041	0.469559	1.07468	0.725501	0.596762	0.923209	0.522657
0.327295	1.04083	0.147043	2.14016	0.32785	1.04671	0.496655	0.997088	0.60772	1.03618	0.864911	0.581166	0.28866	2.20263	0.470564	1.08391	0.72606	0.602731	0.923698	0.527895
0.32827	1.05115	0.149038	2.14191	0.32883	1.05708	0.497588	1.00552	0.60869	1.04488	0.865455	0.586885	0.290713	2.20481	0.471579	1.09306	0.726624	0.608682	0.924193	0.533113
0.329254	1.06151	0.151034	2.1436	0.32982	1.06742	0.498529	1.01391	0.609667	1.05356	0.866004	0.592601	0.292769	2.20692	0.472601	1.10215	0.727194	0.614623	0.924692	0.538323
0.330248	1.07189	0.153032	2.14525	0.330819	1.07783	0.499477	1.02225	0.610653	1.06214	0.866559	0.598279	0.294826	2.20897	0.473632	1.11123	0.72777	0.620597	0.925196	0.543565
0.331251	1.08231	0.155031	2.1468	0.331828	1.08827	0.500434	1.03055	0.611647	1.07068	0.867119	0.603937	0.296885	2.21091	0.474672	1.12024	0.728351	0.626477	0.925705	0.548785
0.332265	1.09273	0.157032	2.14828	0.332847	1.09873	0.501398	1.03884	0.612648	1.07916	0.867685	0.609623	0.298946	2.21279	0.47572	1.12917	0.728937	0.632383	0.926218	0.553959
0.333288	1.10324	0.159035	2.14975	0.333876	1.10927	0.502369	1.04702	0.613657	1.08762	0.868255	0.615322	0.301008	2.21465	0.476776	1.13807	0.729529	0.63834	0.926737	0.559146
0.33432	1.11381	0.161038	2.15118	0.334914	1.11985	0.503349	1.05513	0.614675	1.09602	0.868831	0.620955	0.303072	2.21642	0.47784	1.14695	0.730126	0.644211	0.92726	0.56434
0.335363	1.12441	0.163043	2.15251	0.335962	1.13052	0.504336	1.06325	0.6157	1.10432	0.869412	0.626592	0.305138	2.21811	0.478913	1.15579	0.730729	0.650076	0.927788	0.5695
