Sym0		Asym0		Sym1		Sym2		Asym1		Asym2	
594  Points		594  Points		593  Points		560  Points		594  Points		295  Points	
Freq (MHz)	Vph (m/ms)	Freq (MHz)	Vph (m/ms)	Freq (MHz)	Vph (m/ms)	Freq (MHz)	Vph (m/ms)	Freq (MHz)	Vph (m/ms)	Freq (MHz)	Vph (m/ms)
1.00099	2.58495	0.30619	1003.65	1.0001	2.58558	0.612373	4585.78	0.306189	1166.15	1.00137	5.25064
0.999654	2.5859	0.306224	317.698	0.998766	2.58654	0.612395	772.889	0.306221	332.353	0.999487	5.25891
0.998319	2.58686	0.306294	188.756	0.997429	2.58749	0.612449	422.043	0.306288	193.831	0.997591	5.26719
0.996981	2.58781	0.306399	134.297	0.996089	2.58844	0.612534	290.306	0.306391	136.844	0.995687	5.27549
0.995641	2.58876	0.306539	104.254	0.994747	2.58938	0.612651	221.272	0.306529	105.78	0.993775	5.2838
0.994298	2.5897	0.306714	85.2193	0.993402	2.59033	0.612798	178.785	0.306702	86.2346	0.991855	5.29213
0.992952	2.59064	0.306925	72.0832	0.992055	2.59126	0.612977	150.005	0.30691	72.8067	0.989928	5.30048
0.991603	2.59158	0.30717	62.4745	0.990704	2.5922	0.613187	129.223	0.307154	63.016	0.987994	5.30885
0.990251	2.59251	0.307451	55.1428	0.98935	2.59312	0.613428	113.514	0.307432	55.563	0.986054	5.31725
0.988896	2.59343	0.307766	49.3661	0.987993	2.59405	0.613699	101.224	0.307744	49.7016	0.984108	5.32568
0.987538	2.59435	0.308115	44.6986	0.986632	2.59496	0.614	91.3471	0.308091	44.9726	0.982156	5.33413
0.986176	2.59527	0.308498	40.85	0.985269	2.59587	0.614332	83.238	0.308472	41.0779	0.980198	5.34261
0.984811	2.59618	0.308915	37.6232	0.983901	2.59678	0.614693	76.4616	0.308887	37.8156	0.978236	5.35113
0.983443	2.59708	0.309366	34.8795	0.98253	2.59767	0.615083	70.7151	0.309336	35.044	0.976268	5.35969
0.98207	2.59797	0.30985	32.5186	0.981155	2.59857	0.615502	65.7809	0.309818	32.661	0.974296	5.36828
0.980694	2.59886	0.310367	30.4664	0.979776	2.59945	0.61595	61.4987	0.310333	30.5907	0.97232	5.37691
0.979314	2.59974	0.310917	28.6665	0.978393	2.60033	0.616426	57.7477	0.310881	28.776	0.970341	5.38558
0.97793	2.60062	0.311499	27.0756	0.977007	2.6012	0.61693	54.4353	0.311461	27.1726	0.968358	5.3943
0.976542	2.60148	0.312113	25.6596	0.975616	2.60206	0.617461	51.4891	0.312073	25.7462	0.966371	5.40306
0.975149	2.60234	0.312759	24.3916	0.97422	2.60291	0.618019	48.8518	0.312717	24.4694	0.964382	5.41187
0.973753	2.60319	0.313436	23.2498	0.972821	2.60375	0.618604	46.4777	0.313391	23.32	0.962391	5.42074
0.972352	2.60403	0.314144	22.2166	0.971417	2.60459	0.619214	44.3293	0.314097	22.2803	0.960397	5.42966
0.970946	2.60487	0.314882	21.2774	0.970009	2.60541	0.61985	42.3762	0.314833	21.3355	0.958402	5.43863
0.969537	2.60569	0.31565	20.4203	0.968596	2.60623	0.620511	40.5931	0.315599	20.4733	0.956405	5.44767
0.968123	2.6065	0.316447	19.635	0.967179	2.60704	0.621197	38.9589	0.316395	19.6837	0.954407	5.45676
0.966704	2.60731	0.317274	18.9132	0.965758	2.60784	0.621907	37.4558	0.31722	18.958	0.952408	5.46592
0.965281	2.6081	0.318129	18.2475	0.964331	2.60863	0.62264	36.0688	0.318073	18.2889	0.950408	5.47515
0.963853	2.60889	0.319012	17.6319	0.9629	2.60941	0.623396	34.7851	0.318954	17.6702	0.948409	5.48444
0.962421	2.60967	0.319923	17.061	0.961465	2.61018	0.624175	33.5936	0.319864	17.0966	0.946409	5.49381
0.960983	2.61043	0.320862	16.5303	0.960025	2.61094	0.624976	32.4849	0.3208	16.5634	0.94441	5.50325
0.959542	2.61119	0.321827	16.0358	0.95858	2.61169	0.625799	31.4507	0.321764	16.0666	0.942411	5.51277
0.958095	2.61194	0.322818	15.5739	0.95713	2.61243	0.626642	30.4838	0.322753	15.6028	0.940414	5.52237
0.956644	2.61267	0.323835	15.1417	0.955676	2.61316	0.627507	29.5779	0.323768	15.1688	0.938418	5.53205
0.955188	2.6134	0.324877	14.7365	0.954216	2.61388	0.628391	28.7275	0.324809	14.7619	0.936424	5.54182
0.953727	2.61411	0.325944	14.3559	0.952753	2.61458	0.629295	27.9277	0.325875	14.3798	0.934431	5.55167
0.952262	2.61482	0.327036	13.9978	0.951284	2.61528	0.630218	27.1741	0.326965	14.0203	0.932441	5.56161
0.950792	2.61551	0.328151	13.6603	0.949811	2.61597	0.631159	26.463	0.328078	13.6815	0.930453	5.57165
0.949317	2.6162	0.32929	13.3418	0.948333	2.61665	0.632119	25.7908	0.329215	13.3619	0.928469	5.58179
0.947838	2.61687	0.330451	13.0408	0.946851	2.61731	0.633096	25.1546	0.330376	13.0597	0.926487	5.59203
0.946354	2.61754	0.331635	12.7559	0.945364	2.61797	0.634091	24.5514	0.331558	12.7738	0.924509	5.60236
0.944865	2.61819	0.332841	12.4859	0.943872	2.61862	0.635102	23.9789	0.332762	12.5029	0.922535	5.61281
0.943372	2.61883	0.334068	12.2297	0.942376	2.61925	0.636129	23.4348	0.333988	12.2458	0.920565	5.62336
0.941874	2.61947	0.335316	11.9863	0.940875	2.61988	0.637173	22.917	0.335235	12.0016	0.9186	5.63403
0.940372	2.62009	0.336585	11.7548	0.93937	2.6205	0.638231	22.4238	0.336502	11.7694	0.916639	5.64481
0.938865	2.6207	0.337873	11.5344	0.93786	2.6211	0.639305	21.9533	0.337789	11.5483	0.914683	5.65571
0.937354	2.6213	0.339181	11.3244	0.936346	2.6217	0.640393	21.5042	0.339096	11.3376	0.912733	5.66674
0.935838	2.6219	0.340508	11.124	0.934828	2.62228	0.641495	21.075	0.340422	11.1366	0.910788	5.67789
0.934319	2.62248	0.341854	10.9327	0.933305	2.62286	0.642612	20.6644	0.341766	10.9447	0.908849	5.68917
0.932794	2.62305	0.343217	10.7498	0.931778	2.62343	0.643741	20.2713	0.343129	10.7613	0.906916	5.70058
0.931266	2.62361	0.344599	10.5748	0.930247	2.62398	0.644883	19.8945	0.344509	10.5859	0.90499	5.71213
0.929734	2.62417	0.345998	10.4074	0.928712	2.62453	0.646038	19.5331	0.345907	10.418	0.903071	5.72381
0.928197	2.62471	0.347413	10.2469	0.927173	2.62507	0.647205	19.1863	0.347321	10.257	0.90116	5.73565
0.926657	2.62525	0.348845	10.093	0.92563	2.6256	0.648384	18.853	0.348752	10.1027	0.899255	5.74763
0.925113	2.62577	0.350292	9.9453	0.924083	2.62612	0.649574	18.5326	0.350012	9.97335	0.897359	5.75976
0.923564	2.62629	0.351756	9.80347	0.922532	2.62663	0.650775	18.2243	0.351095	9.86663	0.89547	5.77204
0.922012	2.62679	0.353234	9.66717	0.920977	2.62713	0.651987	17.9275	0.351997	9.78074	0.89359	5.78449
0.920456	2.62729	0.354727	9.53609	0.919419	2.62762	0.65321	17.6415	0.352714	9.7143	0.891719	5.7971
0.918897	2.62778	0.356234	9.40995	0.917857	2.6281	0.654442	17.3658	0.353244	9.66625	0.889857	5.80988
0.917333	2.62826	0.357755	9.28848	0.916291	2.62858	0.655684	17.0999	0.353584	9.63585	0.888004	5.82283
0.915767	2.62874	0.359289	9.17144	0.914722	2.62905	0.656936	16.8431	0.354074	9.59262	0.886161	5.83595
0.914197	2.6292	0.360836	9.0586	0.91315	2.62951	0.658196	16.5951	0.354608	9.54624	0.884328	5.84926
0.912623	2.62966	0.362396	8.94975	0.911574	2.62996	0.659466	16.3555	0.355338	9.48419	0.882506	5.86275
0.911046	2.63011	0.363969	8.84467	0.909995	2.6304	0.660744	16.1237	0.356266	9.40733	0.880694	5.87644
0.909466	2.63055	0.365553	8.74319	0.908412	2.63084	0.66203	15.8995	0.357395	9.31674	0.878893	5.89031
0.907882	2.63098	0.367148	8.64513	0.906827	2.63127	0.663324	15.6824	0.358728	9.21361	0.877103	5.90439
0.906296	2.63141	0.368755	8.55033	0.905238	2.63169	0.664626	15.4722	0.360271	9.09926	0.875325	5.91867
0.904706	2.63183	0.370372	8.45862	0.903647	2.6321	0.665935	15.2685	0.361826	8.98898	0.873559	5.93315
0.903113	2.63224	0.372	8.36987	0.902052	2.63251	0.667251	15.0711	0.363394	8.88255	0.871805	5.94786
0.901518	2.63264	0.373638	8.28393	0.900454	2.63291	0.668574	14.8795	0.364974	8.77978	0.870064	5.96278
0.899919	2.63304	0.375286	8.20067	0.898854	2.6333	0.669904	14.6937	0.366565	8.68049	0.868335	5.97792
0.898318	2.63343	0.376943	8.11999	0.897251	2.63369	0.671239	14.5133	0.368168	8.58452	0.86662	5.9933
0.896714	2.63382	0.378609	8.04175	0.895645	2.63407	0.672581	14.338	0.369782	8.4917	0.864919	6.00891
0.895107	2.63419	0.380283	7.96585	0.894036	2.63444	0.673929	14.1678	0.371406	8.40189	0.863231	6.02476
0.893497	2.63456	0.381966	7.89219	0.892425	2.63481	0.675282	14.0023	0.37304	8.31494	0.861557	6.04085
0.891885	2.63493	0.383657	7.82067	0.890811	2.63517	0.676641	13.8414	0.374684	8.23072	0.859898	6.0572
0.890271	2.63529	0.385356	7.7512	0.889195	2.63553	0.678005	13.6849	0.376338	8.14911	0.858254	6.0738
0.888654	2.63564	0.387062	7.68369	0.887577	2.63588	0.679373	13.5325	0.378001	8.06999	0.856625	6.09067
0.887035	2.63599	0.388775	7.61807	0.885956	2.63622	0.680747	13.3843	0.379672	7.99325	0.855011	6.10781
0.885413	2.63633	0.390495	7.55424	0.884333	2.63656	0.682124	13.2398	0.381352	7.91878	0.853413	6.12522
0.883789	2.63667	0.392221	7.49215	0.882707	2.63689	0.683506	13.0992	0.38304	7.8465	0.851831	6.14291
0.882163	2.637	0.393953	7.43171	0.88108	2.63722	0.684892	12.9621	0.384736	7.77629	0.850266	6.16089
0.880534	2.63733	0.395691	7.37286	0.87945	2.63754	0.686282	12.8284	0.386439	7.70808	0.848717	6.17917
0.878904	2.63765	0.397434	7.31555	0.877818	2.63786	0.687675	12.6981	0.38815	7.64178	0.847185	6.19774
0.877271	2.63796	0.399183	7.2597	0.876184	2.63817	0.689072	12.571	0.389867	7.5773	0.845671	6.21663
0.875637	2.63828	0.400936	7.20526	0.874548	2.63848	0.690472	12.4469	0.391591	7.51459	0.844174	6.23582
0.874	2.63858	0.402694	7.15217	0.87291	2.63878	0.691875	12.3258	0.393321	7.45355	0.842695	6.25534
0.872362	2.63888	0.404456	7.10039	0.87127	2.63908	0.69328	12.2076	0.395056	7.39413	0.841234	6.27518
0.870721	2.63918	0.406223	7.04986	0.869629	2.63938	0.694688	12.0921	0.396798	7.33627	0.839792	6.29536
0.869079	2.63948	0.407993	7.00054	0.867985	2.63967	0.696099	11.9793	0.398545	7.27989	0.838368	6.31588
0.867435	2.63976	0.409766	6.95238	0.86634	2.63995	0.697512	11.869	0.400296	7.22494	0.836964	6.33675
0.865789	2.64005	0.411543	6.90534	0.864694	2.64024	0.698927	11.7613	0.402053	7.17137	0.835579	6.35798
0.864142	2.64033	0.413322	6.85937	0.863045	2.64051	0.700344	11.6559	0.403814	7.11912	0.834213	6.37957
0.862493	2.64061	0.415104	6.81444	0.861395	2.64079	0.701762	11.5528	0.405578	7.06814	0.832867	6.40153
0.860842	2.64088	0.416888	6.7705	0.859743	2.64106	0.703182	11.452	0.407347	7.01838	0.831542	6.42387
0.85919	2.64115	0.418675	6.72753	0.85809	2.64133	0.704603	11.3533	0.409119	6.96981	0.830236	6.44659
0.857536	2.64141	0.420463	6.68549	0.856435	2.64159	0.706026	11.2567	0.410895	6.92236	0.828952	6.46971
0.855881	2.64168	0.422252	6.64434	0.854779	2.64185	0.707449	11.1622	0.412673	6.876	0.827688	6.49323
0.854224	2.64193	0.424043	6.60405	0.853121	2.6421	0.708873	11.0696	0.414454	6.8307	0.826445	6.51717
0.852566	2.64219	0.425834	6.5646	0.851462	2.64236	0.710298	10.9789	0.416238	6.78641	0.825224	6.54152
0.850906	2.64244	0.427626	6.52595	0.849801	2.64261	0.711723	10.89	0.418023	6.74309	0.824024	6.5663
0.849245	2.64269	0.429419	6.48807	0.848139	2.64285	0.713148	10.8029	0.419811	6.70071	0.822845	6.59152
0.847583	2.64293	0.431211	6.45094	0.846476	2.6431	0.714574	10.7176	0.4216	6.65924	0.821689	6.61718
0.845919	2.64318	0.433004	6.41454	0.844812	2.64334	0.715816	10.6445	0.42339	6.61864	0.820555	6.64329
0.844254	2.64342	0.434796	6.37883	0.843146	2.64357	0.716875	10.5833	0.425181	6.57889	0.819443	6.66986
0.842588	2.64365	0.436587	6.34379	0.841479	2.64381	0.717751	10.5333	0.426973	6.53995	0.818354	6.69691
0.840921	2.64389	0.438377	6.30941	0.839811	2.64404	0.718443	10.4941	0.428765	6.50179	0.817287	6.72443
0.839252	2.64412	0.440166	6.27565	0.838142	2.64427	0.718952	10.4656	0.430558	6.4644	0.816243	6.75244
0.837583	2.64435	0.441953	6.2425	0.836471	2.6445	0.719277	10.4474	0.43235	6.42773	0.815222	6.78095
0.835912	2.64457	0.443739	6.20993	0.8348	2.64472	0.719745	10.4215	0.434142	6.39177	0.814224	6.80997
0.83424	2.6448	0.445522	6.17793	0.833127	2.64494	0.720254	10.3934	0.435934	6.35649	0.813249	6.8395
0.832567	2.64502	0.447303	6.14648	0.831454	2.64516	0.720945	10.3556	0.437725	6.32187	0.812298	6.86956
0.830893	2.64523	0.449082	6.11555	0.829779	2.64538	0.72182	10.3082	0.439514	6.28788	0.81137	6.90016
0.829218	2.64545	0.450857	6.08514	0.828103	2.64559	0.722877	10.2517	0.441302	6.25451	0.810465	6.9313
0.827542	2.64566	0.45263	6.05522	0.826427	2.64581	0.724116	10.1863	0.443088	6.22173	0.809584	6.963
0.825865	2.64588	0.454399	6.02578	0.824749	2.64602	0.725537	10.1126	0.444872	6.18953	0.808727	6.99526
0.824188	2.64609	0.456164	5.99679	0.823071	2.64622	0.726957	10.0402	0.446654	6.15788	0.807894	7.0281
0.822509	2.64629	0.457925	5.96826	0.821391	2.64643	0.728375	9.96906	0.448434	6.12676	0.807084	7.06153
0.820829	2.6465	0.459682	5.94015	0.819711	2.64663	0.729792	9.89919	0.45021	6.09617	0.806298	7.09555
0.819149	2.6467	0.461435	5.91247	0.81803	2.64684	0.731206	9.83053	0.451984	6.06607	0.805536	7.13018
0.817467	2.6469	0.463183	5.88518	0.816348	2.64704	0.732619	9.76305	0.453754	6.03645	0.804797	7.16543
0.815785	2.6471	0.464925	5.85829	0.814665	2.64724	0.73403	9.69672	0.455521	6.00731	0.804083	7.20131
0.814102	2.6473	0.466663	5.83177	0.812982	2.64743	0.735439	9.63151	0.457284	5.97861	0.803392	7.23783
0.812418	2.6475	0.468394	5.80561	0.811297	2.64763	0.736845	9.56738	0.459042	5.95035	0.802726	7.275
0.810734	2.64769	0.47012	5.77981	0.809612	2.64782	0.738249	9.5043	0.460797	5.92251	0.802083	7.31284
0.809048	2.64789	0.47184	5.75434	0.807926	2.64801	0.73965	9.44226	0.462546	5.89508	0.801464	7.35135
0.807362	2.64808	0.473554	5.72921	0.80624	2.6482	0.741048	9.38121	0.464291	5.86804	0.800869	7.39055
0.805675	2.64827	0.47526	5.70439	0.804553	2.64839	0.742443	9.32113	0.46603	5.84139	0.800297	7.43045
0.803988	2.64846	0.47696	5.67987	0.802865	2.64858	0.743835	9.262	0.467764	5.8151	0.799749	7.47106
0.8023	2.64864	0.478652	5.65566	0.801176	2.64877	0.745224	9.20379	0.469492	5.78917	0.799224	7.5124
0.800611	2.64883	0.480338	5.63173	0.799487	2.64895	0.746609	9.14648	0.471214	5.76359	0.798723	7.55447
0.798921	2.64901	0.482015	5.60808	0.797797	2.64913	0.747991	9.09004	0.47293	5.73833	0.798246	7.59729
0.797231	2.6492	0.483684	5.58469	0.796106	2.64932	0.749369	9.03445	0.474639	5.7134	0.797792	7.64088
0.79554	2.64938	0.485345	5.56157	0.794415	2.6495	0.750743	8.9797	0.476341	5.68878	0.79736	7.68524
0.793849	2.64956	0.486998	5.53869	0.792723	2.64968	0.752113	8.92575	0.478036	5.66445	0.796952	7.7304
0.792157	2.64974	0.488641	5.51605	0.791031	2.64986	0.753479	8.87259	0.479724	5.64042	0.796567	7.77635
0.790465	2.64991	0.490276	5.49365	0.789338	2.65003	0.75484	8.8202	0.481404	5.61667	0.796205	7.82313
0.788772	2.65009	0.491901	5.47147	0.787645	2.65021	0.756197	8.76855	0.483077	5.59319	0.795865	7.87074
0.787078	2.65027	0.493517	5.4495	0.785951	2.65038	0.75755	8.71764	0.484741	5.56997	0.795548	7.9192
0.785384	2.65044	0.495122	5.42775	0.784256	2.65056	0.758897	8.66743	0.486396	5.547	0.795254	7.96853
0.783689	2.65062	0.496718	5.4062	0.782561	2.65073	0.76024	8.61792	0.488043	5.52428	0.794981	8.01873
0.781994	2.65079	0.498303	5.38484	0.780866	2.65091	0.761578	8.56909	0.489681	5.50179	0.794731	8.06983
0.780298	2.65096	0.499878	5.36367	0.77917	2.65108	0.76291	8.52092	0.49131	5.47953	0.794502	8.12184
0.778602	2.65113	0.501442	5.34269	0.777473	2.65125	0.764237	8.47339	0.492929	5.45749	0.794295	8.17478
0.776906	2.6513	0.502995	5.32188	0.775776	2.65142	0.765558	8.42649	0.494538	5.43566	0.79411	8.22867
0.775209	2.65147	0.504536	5.30123	0.774079	2.65159	0.766874	8.38021	0.496138	5.41403	0.793946	8.28352
0.773511	2.65164	0.506066	5.28075	0.772381	2.65176	0.768184	8.33452	0.497727	5.39261	0.793804	8.33935
0.771813	2.65181	0.507584	5.26043	0.770683	2.65192	0.769488	8.28942	0.499305	5.37137	0.793682	8.39619
0.770115	2.65198	0.50909	5.24026	0.768985	2.65209	0.770786	8.24488	0.500873	5.35032	0.793581	8.45404
0.768416	2.65215	0.510584	5.22024	0.767286	2.65226	0.772078	8.20091	0.50243	5.32944	0.793501	8.51293
0.766717	2.65231	0.512066	5.20035	0.765586	2.65242	0.773363	8.15748	0.503976	5.30874	0.793441	8.57288
0.765017	2.65248	0.513534	5.18061	0.763886	2.65259	0.774642	8.11458	0.50551	5.2882	0.793401	8.63391
0.763318	2.65264	0.51499	5.16099	0.762186	2.65275	0.775914	8.0722	0.507032	5.26782	0.793382	8.69604
0.761617	2.65281	0.516433	5.1415	0.760486	2.65292	0.77718	8.03032	0.508543	5.2476	0.793382	8.75929
0.759917	2.65297	0.517862	5.12214	0.758785	2.65308	0.778438	7.98894	0.510041	5.22752	0.793402	8.82369
0.758216	2.65314	0.519278	5.10289	0.757084	2.65325	0.77969	7.94805	0.511527	5.20759	0.793441	8.88926
0.756514	2.6533	0.52068	5.08376	0.755382	2.65341	0.780934	7.90763	0.513	5.18779	0.793499	8.95602
0.754813	2.65346	0.522069	5.06474	0.75368	2.65357	0.782171	7.86767	0.514461	5.16813	0.793577	9.02399
0.753111	2.65363	0.523443	5.04582	0.751978	2.65374	0.783401	7.82816	0.515908	5.14859	0.793673	9.0932
0.751409	2.65379	0.524803	5.02701	0.750276	2.6539	0.784623	7.78909	0.517342	5.12918	0.793787	9.16369
0.749706	2.65395	0.526149	5.0083	0.748573	2.65406	0.785837	7.75046	0.518763	5.1099	0.793921	9.23546
0.748003	2.65411	0.527481	4.98968	0.74687	2.65422	0.787043	7.71225	0.520171	5.09072	0.794072	9.30856
0.7463	2.65427	0.528797	4.97115	0.745167	2.65438	0.788242	7.67445	0.521564	5.07166	0.794241	9.38301
0.744597	2.65444	0.530099	4.95272	0.743463	2.65454	0.789432	7.63705	0.522944	5.0527	0.794428	9.45883
0.742893	2.6546	0.531387	4.93438	0.741759	2.6547	0.790614	7.60005	0.524309	5.03385	0.794632	9.53607
0.741189	2.65476	0.532659	4.91612	0.740055	2.65487	0.791788	7.56343	0.52566	5.01511	0.794854	9.61474
0.739485	2.65492	0.533916	4.89794	0.738351	2.65503	0.792953	7.52719	0.526997	4.99645	0.795092	9.69489
0.737781	2.65508	0.535158	4.87984	0.736647	2.65519	0.79411	7.49132	0.528319	4.9779	0.795348	9.77654
0.736076	2.65524	0.536385	4.86182	0.734942	2.65535	0.795258	7.45582	0.529627	4.95943	0.79562	9.85973
0.734371	2.6554	0.537597	4.84388	0.733237	2.65551	0.796397	7.42066	0.530919	4.94105	0.795909	9.9445
0.732666	2.65556	0.538793	4.82601	0.731532	2.65567	0.797528	7.38586	0.532197	4.92276	0.796214	10.0309
0.730961	2.65572	0.539973	4.80821	0.729826	2.65583	0.798649	7.35139	0.53346	4.90455	0.796535	10.1189
0.729256	2.65588	0.541139	4.79048	0.728121	2.65599	0.799761	7.31725	0.534707	4.88643	0.796872	10.2086
0.72755	2.65605	0.542288	4.77282	0.726415	2.65615	0.800864	7.28344	0.53594	4.86838	0.797225	10.3001
0.725844	2.65621	0.543423	4.75524	0.724709	2.65631	0.801957	7.24995	0.537157	4.85041	0.797544	10.3812
0.724138	2.65637	0.544541	4.73771	0.723003	2.65648	0.803042	7.21677	0.538359	4.83251	0.797826	10.4515
0.722432	2.65653	0.545645	4.72025	0.721297	2.65664	0.804116	7.18389	0.539545	4.81469	0.798066	10.5103
0.720726	2.65669	0.546732	4.70286	0.71959	2.6568	0.805181	7.15131	0.540716	4.79694	0.798259	10.5574
0.719019	2.65685	0.547804	4.68553	0.717884	2.65696	0.806236	7.11903	0.541871	4.77925	0.798403	10.5922
0.717313	2.65702	0.548861	4.66826	0.716177	2.65712	0.807282	7.08703	0.543011	4.76164	0.798538	10.6245
0.715606	2.65718	0.549902	4.65106	0.71447	2.65729	0.808317	7.05532	0.544135	4.74409	0.798632	10.6471
0.713899	2.65734	0.550928	4.63391	0.712763	2.65745	0.809342	7.02388	0.545244	4.72661	0.798782	10.6826
0.712192	2.6575	0.551939	4.61683	0.711056	2.65761	0.810358	6.99271	0.546338	4.70919	0.798987	10.7313
0.710485	2.65767	0.552934	4.59981	0.709349	2.65778	0.811363	6.96181	0.547415	4.69184	0.799253	10.7935
0.708778	2.65783	0.553915	4.58285	0.707642	2.65794	0.812358	6.93116	0.548478	4.67455	0.799581	10.8698
0.707071	2.658	0.55488	4.56595	0.705935	2.6581	0.813343	6.90078	0.549525	4.65732	0.799976	10.9607
0.705363	2.65816	0.55583	4.5491	0.704227	2.65827	0.814317	6.87064	0.550556	4.64016	0.800443	11.067
0.703656	2.65833	0.556766	4.53232	0.70252	2.65844	0.815281	6.84075	0.551572	4.62305	0.800923	11.1754
0.701948	2.65849	0.557686	4.5156	0.700812	2.6586	0.816235	6.8111	0.552573	4.60601	0.801418	11.2861
0.700241	2.65866	0.558593	4.49894	0.699104	2.65877	0.817178	6.78168	0.553559	4.58902	0.801926	11.399
0.698533	2.65882	0.559484	4.48234	0.697397	2.65894	0.81811	6.7525	0.55453	4.5721	0.802448	11.5142
0.696825	2.65899	0.560362	4.4658	0.695689	2.6591	0.819032	6.72355	0.555486	4.55524	0.802982	11.6319
0.695118	2.65916	0.561225	4.44932	0.693981	2.65927	0.819943	6.69482	0.556426	4.53843	0.80353	11.752
0.69341	2.65933	0.562074	4.4329	0.692273	2.65944	0.820843	6.66631	0.557353	4.52169	0.804091	11.8746
0.691702	2.6595	0.56291	4.41654	0.690565	2.65961	0.821732	6.63802	0.558264	4.50501	0.804665	11.9998
0.689994	2.65967	0.563732	4.40024	0.688858	2.65978	0.822611	6.60994	0.559161	4.48838	0.805251	12.1277
0.688286	2.65984	0.56454	4.38401	0.68715	2.65996	0.823479	6.58207	0.560044	4.47182	0.80585	12.2583
