Sym0		Asym0		Sym1		Sym2		Asym1		Asym2	
563  Points		564  Points		563  Points		532  Points		565  Points		318  Points	
Freq (MHz)	Vgr (m/ms)	Freq (MHz)	Vgr (m/ms)	Freq (MHz)	Vgr (m/ms)	Freq (MHz)	Vgr (m/ms)	Freq (MHz)	Vgr (m/ms)	Freq (MHz)	Vgr (m/ms)
1.00051	2.03434	0.279527	0.0807782	1.00001	2.03557	0.559031	0.0801844	0.279515	0.0599463	1.00013	2.3399
0.999101	2.03599	0.279583	0.108191	0.998592	2.03722	0.559087	0.110903	0.279557	0.0873758	0.998508	2.34924
0.997686	2.03938	0.279677	0.162913	0.997176	2.04059	0.559185	0.172106	0.279637	0.14215	0.99687	2.36773
0.996269	2.0429	0.279809	0.217528	0.995758	2.04419	0.559326	0.2329	0.279754	0.196769	0.995219	2.38593
0.994849	2.04661	0.279979	0.271924	0.994337	2.04804	0.559508	0.293268	0.27991	0.251273	0.993556	2.40375
0.993426	2.05059	0.280187	0.326082	0.992913	2.05201	0.559733	0.35308	0.280103	0.305547	0.99188	2.42113
0.992001	2.05472	0.280432	0.380056	0.991487	2.05622	0.559999	0.412273	0.280334	0.359559	0.990193	2.4382
0.990573	2.05895	0.280714	0.433666	0.990058	2.0606	0.560305	0.470618	0.280603	0.41334	0.988494	2.45494
0.989141	2.06347	0.281034	0.486937	0.988625	2.06515	0.560652	0.528054	0.280908	0.466759	0.986783	2.47124
0.987707	2.0682	0.281391	0.539827	0.987189	2.06991	0.561039	0.584656	0.281251	0.519747	0.985062	2.48711
0.986269	2.07304	0.281784	0.59225	0.98575	2.07482	0.561464	0.640179	0.28163	0.572366	0.983329	2.50266
0.984827	2.0781	0.282213	0.644228	0.984308	2.07993	0.561928	0.694525	0.282046	0.624542	0.981586	2.51782
0.983382	2.0833	0.282679	0.695712	0.982861	2.08522	0.562429	0.747796	0.282498	0.676223	0.979832	2.53253
0.981934	2.08869	0.28318	0.746699	0.981411	2.09071	0.562967	0.799899	0.282985	0.727406	0.978068	2.54682
0.980482	2.09426	0.283716	0.797082	0.979958	2.09627	0.56354	0.85065	0.283508	0.777987	0.976295	2.56076
0.979025	2.09989	0.284287	0.846849	0.9785	2.10199	0.564148	0.900169	0.284066	0.828051	0.974512	2.57428
0.977565	2.10576	0.284892	0.896071	0.977038	2.10792	0.56479	0.948405	0.284658	0.877474	0.97272	2.58736
0.976101	2.11181	0.285531	0.944597	0.975572	2.11399	0.565465	0.995253	0.285284	0.926207	0.970918	2.59998
0.974632	2.1179	0.286204	0.992419	0.974102	2.12015	0.566173	1.0408	0.285944	0.974342	0.969108	2.61223
0.973159	2.12418	0.28691	1.03962	0.972628	2.12646	0.566911	1.08502	0.286638	1.02178	0.96729	2.62407
0.971682	2.13056	0.287648	1.08606	0.971149	2.13288	0.567679	1.12786	0.287363	1.06849	0.965464	2.63546
0.9702	2.13703	0.288418	1.13178	0.969665	2.13945	0.568477	1.16933	0.288122	1.11447	0.96363	2.64644
0.968714	2.14368	0.28922	1.17675	0.968177	2.14609	0.569304	1.20952	0.288911	1.15974	0.961788	2.65701
0.967223	2.15039	0.290052	1.22098	0.966685	2.1528	0.570157	1.24844	0.289732	1.2043	0.95994	2.66715
0.965727	2.15713	0.290915	1.26445	0.965187	2.15962	0.571037	1.28598	0.290584	1.24802	0.958084	2.67682
0.964227	2.16404	0.291808	1.30706	0.963685	2.16649	0.571943	1.32225	0.291466	1.29094	0.956222	2.68612
0.962721	2.17097	0.292731	1.34896	0.962178	2.17346	0.572874	1.35736	0.292377	1.33315	0.954353	2.695
0.961211	2.17795	0.293682	1.39	0.960666	2.1805	0.573829	1.39121	0.293317	1.37454	0.952479	2.70343
0.959696	2.18503	0.294661	1.43023	0.95915	2.18762	0.574806	1.42383	0.294286	1.41506	0.950598	2.71144
0.958177	2.19213	0.295668	1.46971	0.957628	2.19468	0.575806	1.45528	0.295283	1.45483	0.948713	2.71901
0.956652	2.19924	0.296703	1.50838	0.956102	2.20181	0.576827	1.48564	0.296307	1.49379	0.946822	2.72619
0.955122	2.20639	0.297763	1.54622	0.95457	2.20902	0.577869	1.51492	0.297357	1.5319	0.944926	2.73298
0.953587	2.21362	0.29885	1.58318	0.953033	2.21615	0.578931	1.54312	0.298434	1.56922	0.943026	2.73929
0.952048	2.22079	0.299962	1.61936	0.951492	2.22335	0.580013	1.57024	0.299537	1.60573	0.941122	2.74523
0.950503	2.22798	0.301099	1.65478	0.949945	2.23056	0.581112	1.59637	0.300664	1.6414	0.939213	2.75072
0.948953	2.23517	0.302261	1.68936	0.948394	2.23773	0.58223	1.62161	0.301817	1.67629	0.937301	2.75581
0.947399	2.24228	0.303446	1.72314	0.946838	2.24488	0.583365	1.64586	0.302993	1.71041	0.935386	2.76048
0.945839	2.24942	0.304654	1.75612	0.945276	2.252	0.584516	1.66919	0.304192	1.74366	0.933467	2.76472
0.944274	2.25654	0.305885	1.78828	0.94371	2.25908	0.585683	1.69169	0.305414	1.77617	0.931546	2.76858
0.942705	2.26361	0.307138	1.81967	0.942138	2.26617	0.586865	1.71329	0.306659	1.80786	0.929622	2.77197
0.94113	2.27067	0.308412	1.85032	0.940562	2.27317	0.588063	1.7341	0.307925	1.83873	0.927696	2.77502
0.939551	2.27761	0.309707	1.88018	0.938981	2.28009	0.589274	1.75419	0.309213	1.86892	0.925768	2.77767
0.937967	2.28451	0.311023	1.90925	0.937396	2.28696	0.590499	1.77344	0.310521	1.89834	0.923838	2.77984
0.936378	2.29135	0.312359	1.9376	0.935805	2.29383	0.591737	1.79199	0.311849	1.92693	0.921907	2.78163
0.934785	2.29814	0.313715	1.96521	0.93421	2.30058	0.592988	1.80984	0.313197	1.95481	0.919975	2.78304
0.933186	2.30484	0.315089	1.99205	0.93261	2.3072	0.594251	1.82696	0.314388	1.97855	0.918042	2.78399
0.931583	2.31146	0.316481	2.0182	0.931005	2.31385	0.595525	1.84351	0.315413	1.99833	0.916108	2.78462
0.929976	2.31802	0.317892	2.04367	0.929396	2.32039	0.596811	1.85941	0.316269	2.01437	0.914174	2.78478
0.928364	2.32445	0.31932	2.06839	0.927782	2.32677	0.598108	1.8747	0.316951	2.02684	0.91224	2.78453
0.926748	2.33083	0.320764	2.09237	0.926164	2.33305	0.599415	1.88937	0.317455	2.03588	0.910307	2.78393
0.925127	2.33712	0.322226	2.11577	0.924542	2.33932	0.600732	1.90349	0.317778	2.04172	0.908374	2.78293
0.923502	2.34329	0.323703	2.13849	0.922915	2.34548	0.602059	1.91707	0.318245	2.04996	0.906442	2.7815
0.921872	2.34936	0.325196	2.16044	0.921284	2.3515	0.603394	1.93008	0.318755	2.05875	0.904511	2.77964
0.920239	2.3553	0.326704	2.18184	0.919649	2.35745	0.604739	1.94264	0.319451	2.0707	0.902581	2.7774
0.918601	2.36119	0.328226	2.20263	0.91801	2.36326	0.606093	1.9547	0.320338	2.08548	0.900653	2.77477
0.916959	2.36696	0.329763	2.22269	0.916367	2.369	0.607454	1.96624	0.321418	2.10304	0.898727	2.77178
0.915313	2.37263	0.331313	2.24218	0.91472	2.37466	0.608823	1.97733	0.322697	2.12312	0.896803	2.76834
0.913664	2.37815	0.332877	2.26111	0.913069	2.38019	0.6102	1.98801	0.324179	2.14556	0.894882	2.76452
0.91201	2.3836	0.334454	2.27941	0.911414	2.38555	0.611585	1.99828	0.325677	2.16739	0.892964	2.76032
0.910353	2.389	0.336043	2.29716	0.909756	2.39086	0.612976	2.00809	0.327189	2.18858	0.891048	2.75565
0.908692	2.3942	0.337644	2.31427	0.908094	2.39608	0.614374	2.01749	0.328717	2.20909	0.889137	2.75063
0.907028	2.39928	0.339257	2.3308	0.906428	2.40113	0.615778	2.02648	0.330258	2.22903	0.887228	2.74521
0.90536	2.40435	0.340881	2.34686	0.904759	2.4061	0.617188	2.03511	0.331812	2.24834	0.885324	2.73939
0.903689	2.40926	0.342517	2.36237	0.903086	2.41103	0.618604	2.04343	0.33338	2.26703	0.883423	2.73315
0.902014	2.41408	0.344162	2.37729	0.90141	2.41579	0.620026	2.05133	0.334961	2.28512	0.881528	2.72647
0.900336	2.41881	0.345818	2.39169	0.899731	2.4204	0.621453	2.05886	0.336554	2.30267	0.879637	2.7195
0.898654	2.42335	0.347484	2.40556	0.898048	2.425	0.622886	2.06608	0.338159	2.31964	0.877751	2.71204
0.89697	2.42782	0.349159	2.41895	0.896363	2.42948	0.624323	2.07295	0.339776	2.33599	0.87587	2.70419
0.895282	2.43224	0.350844	2.43187	0.894674	2.43382	0.625765	2.07952	0.341404	2.35188	0.873995	2.69595
0.893592	2.43656	0.352537	2.44426	0.892982	2.43808	0.627211	2.08577	0.343042	2.3672	0.872126	2.68725
0.891898	2.44076	0.354239	2.45617	0.891288	2.44218	0.628662	2.09168	0.344691	2.38193	0.870263	2.6782
0.890202	2.44485	0.355948	2.46759	0.88959	2.44625	0.630116	2.09732	0.346351	2.39617	0.868406	2.66874
0.888503	2.44881	0.357666	2.47855	0.88789	2.45026	0.631575	2.10271	0.348019	2.40993	0.866556	2.65886
0.886801	2.4527	0.359391	2.48908	0.886187	2.45415	0.633037	2.10779	0.349698	2.42315	0.864713	2.64854
0.885096	2.45654	0.361123	2.49912	0.884482	2.4579	0.634502	2.11254	0.351385	2.43585	0.862877	2.63782
0.883389	2.46029	0.362862	2.50869	0.882774	2.46157	0.635971	2.11703	0.353081	2.44814	0.861049	2.62671
0.881679	2.46387	0.364607	2.51791	0.881063	2.46517	0.637443	2.12129	0.354785	2.45989	0.859229	2.61518
0.879967	2.46739	0.366359	2.52661	0.87935	2.46865	0.638917	2.12528	0.356497	2.47117	0.857417	2.60324
0.878252	2.47089	0.368116	2.53488	0.877634	2.47206	0.640394	2.12905	0.358217	2.48197	0.855614	2.59085
0.876535	2.47424	0.36988	2.54278	0.875916	2.47545	0.641874	2.13246	0.359945	2.49233	0.853819	2.57806
0.874816	2.47752	0.371648	2.55022	0.874196	2.47868	0.643356	2.13565	0.361679	2.50227	0.852033	2.56487
0.873094	2.48073	0.373422	2.55723	0.872474	2.48182	0.64484	2.13869	0.36342	2.51167	0.850256	2.55125
0.87137	2.48382	0.3752	2.56389	0.870749	2.48494	0.646326	2.14142	0.365167	2.52069	0.84849	2.53719
0.869644	2.48685	0.376983	2.57014	0.869022	2.48795	0.647814	2.14393	0.366921	2.52933	0.846733	2.52272
0.867916	2.48986	0.378769	2.57594	0.867294	2.49092	0.649304	2.14621	0.36868	2.53748	0.844986	2.50783
0.866186	2.49274	0.38056	2.58137	0.865563	2.49381	0.650795	2.14821	0.370445	2.54519	0.843249	2.4925
0.864454	2.49555	0.382355	2.58642	0.86383	2.49654	0.652288	2.15005	0.372215	2.55249	0.841524	2.47678
0.86272	2.49831	0.384153	2.59112	0.862095	2.49925	0.653781	2.15166	0.37399	2.55943	0.83981	2.46066
0.860984	2.50099	0.385953	2.59541	0.860359	2.50193	0.655276	2.15301	0.37577	2.56594	0.838106	2.44404
0.859247	2.5036	0.387757	2.59927	0.85862	2.50452	0.656579	2.15404	0.377554	2.572	0.836415	2.42703
0.857507	2.50616	0.389564	2.60277	0.85688	2.50707	0.657691	2.15473	0.379342	2.57773	0.834736	2.4096
0.855766	2.50864	0.391372	2.60593	0.855138	2.5095	0.65861	2.15532	0.381134	2.58305	0.833068	2.39175
0.854023	2.51103	0.393183	2.60872	0.853395	2.5119	0.659337	2.15574	0.38293	2.58798	0.831414	2.37345
0.852278	2.51337	0.394995	2.61116	0.85165	2.51425	0.659872	2.15571	0.384729	2.5925	0.829772	2.35472
0.850532	2.51568	0.39681	2.61319	0.849903	2.51649	0.660214	2.1559	0.38653	2.59663	0.828143	2.33565
0.848784	2.51795	0.398625	2.61488	0.848155	2.51871	0.660706	2.15622	0.388335	2.60046	0.826528	2.31607
0.847035	2.52012	0.400441	2.6162	0.846405	2.52089	0.661241	2.1563	0.390142	2.60385	0.824926	2.29608
0.845284	2.5222	0.402258	2.61717	0.844653	2.52299	0.661968	2.15661	0.391952	2.60687	0.823339	2.27576
0.843532	2.5243	0.404076	2.61783	0.842901	2.52502	0.662888	2.15667	0.393763	2.60956	0.821766	2.25495
0.841778	2.52634	0.405894	2.61807	0.841146	2.52704	0.664001	2.15673	0.395576	2.61184	0.820207	2.23368
0.840023	2.52826	0.407712	2.61796	0.839391	2.529	0.665306	2.15675	0.39739	2.61377	0.818663	2.21206
0.838267	2.53023	0.40953	2.61755	0.837634	2.53086	0.666804	2.15646	0.399206	2.61532	0.817135	2.19006
0.836509	2.5321	0.411348	2.61673	0.835876	2.53272	0.668301	2.15601	0.401023	2.61654	0.815622	2.16758
0.83475	2.53388	0.413165	2.61557	0.834116	2.53457	0.669798	2.15535	0.40284	2.61744	0.814124	2.14473
0.83299	2.53568	0.414981	2.61414	0.832355	2.53629	0.671295	2.15448	0.404658	2.61794	0.812643	2.12152
0.831228	2.5374	0.416795	2.61227	0.830594	2.53798	0.67279	2.1535	0.406476	2.61805	0.811178	2.0979
0.829465	2.53907	0.418609	2.6101	0.82883	2.53968	0.674286	2.15228	0.408294	2.61785	0.809729	2.07385
0.827702	2.54075	0.420421	2.60762	0.827066	2.54132	0.67578	2.15078	0.410112	2.61731	0.808297	2.04944
0.825937	2.54234	0.422231	2.60472	0.825301	2.54292	0.677273	2.14915	0.41193	2.61641	0.806883	2.02468
0.824171	2.54385	0.424038	2.60148	0.823534	2.54445	0.678765	2.14735	0.413746	2.61517	0.805485	1.99945
0.822403	2.54539	0.425844	2.59796	0.821767	2.54593	0.680255	2.14537	0.415562	2.61356	0.804106	1.97395
0.820635	2.5469	0.427647	2.59405	0.819998	2.54743	0.681744	2.14315	0.417376	2.61163	0.802744	1.94809
0.818866	2.54834	0.429447	2.58978	0.818229	2.54886	0.683232	2.14071	0.419189	2.60934	0.8014	1.92182
0.817096	2.54976	0.431243	2.58526	0.816458	2.55023	0.684718	2.13817	0.421	2.60667	0.800074	1.89524
0.815325	2.55112	0.433037	2.58034	0.814687	2.55161	0.686202	2.13537	0.422809	2.60371	0.798768	1.8683
0.813553	2.55246	0.434827	2.57503	0.812914	2.5529	0.687683	2.1324	0.424616	2.60042	0.79748	1.84106
0.81178	2.55377	0.436614	2.56943	0.811141	2.55418	0.689163	2.1293	0.426421	2.59676	0.796211	1.8135
0.810006	2.55501	0.438396	2.56352	0.809367	2.55548	0.690641	2.12593	0.428223	2.59271	0.794961	1.78561
0.808231	2.55622	0.440174	2.55722	0.807592	2.55671	0.692116	2.12237	0.430022	2.58838	0.793731	1.75742
0.806455	2.55746	0.441948	2.5506	0.805816	2.55788	0.693588	2.11868	0.431818	2.58371	0.79252	1.72897
0.804679	2.55867	0.443717	2.54365	0.804039	2.55904	0.695058	2.11482	0.43361	2.57867	0.791329	1.70015
0.802902	2.5598	0.44548	2.53634	0.802262	2.56019	0.696526	2.11073	0.435399	2.57331	0.790159	1.67113
0.801124	2.56088	0.447239	2.5287	0.800483	2.56131	0.69799	2.10642	0.437185	2.56758	0.789008	1.64186
0.799345	2.56195	0.448993	2.52068	0.798704	2.56236	0.699451	2.10201	0.438966	2.56152	0.787878	1.61233
0.797566	2.56303	0.45074	2.51242	0.796925	2.56339	0.70091	2.0974	0.440742	2.55515	0.786769	1.58253
0.795785	2.5641	0.452482	2.50374	0.795144	2.56446	0.702364	2.09253	0.442514	2.54842	0.78568	1.55252
0.794004	2.56507	0.454218	2.49475	0.793363	2.56542	0.703816	2.0875	0.444282	2.54133	0.784613	1.52228
0.792223	2.56601	0.455947	2.4854	0.791581	2.56637	0.705264	2.08233	0.446044	2.53395	0.783566	1.49186
0.79044	2.56702	0.45767	2.47575	0.789798	2.56737	0.706708	2.07694	0.447801	2.52618	0.782541	1.46128
0.788657	2.56795	0.459385	2.46579	0.788015	2.5683	0.708148	2.07135	0.449553	2.51807	0.781536	1.43049
0.786874	2.56883	0.461094	2.45539	0.786231	2.56916	0.709585	2.06566	0.451298	2.50964	0.780554	1.39957
0.78509	2.56971	0.462796	2.44472	0.784447	2.57002	0.711017	2.05976	0.453038	2.50091	0.779593	1.36849
0.783305	2.57057	0.46449	2.43379	0.782662	2.57084	0.712446	2.05362	0.454772	2.49183	0.778653	1.33728
0.781519	2.57143	0.466176	2.42245	0.780876	2.57169	0.71387	2.04731	0.456499	2.48237	0.777735	1.30591
0.779733	2.57225	0.467854	2.41078	0.77909	2.57252	0.715289	2.04081	0.45822	2.47258	0.776839	1.27442
0.777947	2.57301	0.469524	2.39883	0.777303	2.57329	0.716704	2.03417	0.459933	2.46248	0.775965	1.24289
0.77616	2.57374	0.471186	2.38652	0.775516	2.57404	0.718114	2.02736	0.46164	2.45202	0.775113	1.21128
0.774372	2.57451	0.472839	2.3739	0.773728	2.57476	0.71952	2.02032	0.463339	2.44124	0.774283	1.17959
0.772584	2.57526	0.474483	2.36094	0.77194	2.57551	0.72092	2.01312	0.46503	2.4302	0.773475	1.14784
0.770795	2.57598	0.476118	2.34769	0.770151	2.57623	0.722316	2.00578	0.466714	2.41874	0.772689	1.1161
0.769006	2.57664	0.477744	2.33417	0.768362	2.57687	0.723706	1.99823	0.46839	2.40696	0.771925	1.08426
0.767217	2.57727	0.47936	2.32029	0.766572	2.57757	0.725091	1.99043	0.470057	2.39493	0.771183	1.05241
0.765427	2.57795	0.480966	2.3061	0.764782	2.57817	0.726471	1.9825	0.471716	2.38253	0.770463	1.02064
0.763636	2.57861	0.482563	2.29167	0.762991	2.5788	0.727845	1.97446	0.473366	2.3698	0.769765	0.988844
0.761845	2.57924	0.484149	2.27686	0.7612	2.57946	0.729213	1.96621	0.475007	2.35675	0.76909	0.957094
0.760054	2.57981	0.485725	2.26178	0.759409	2.57999	0.730575	1.95771	0.476639	2.34339	0.768436	0.925332
0.758262	2.58037	0.487291	2.24646	0.757617	2.58056	0.731932	1.94909	0.478262	2.32974	0.767804	0.893647
0.75647	2.5809	0.488845	2.23086	0.755825	2.58112	0.733282	1.94031	0.479875	2.31579	0.767195	0.862015
0.754678	2.58147	0.490389	2.21498	0.754032	2.58164	0.734627	1.9313	0.481478	2.30154	0.766607	0.830492
0.752885	2.58201	0.491922	2.19876	0.752239	2.5822	0.735965	1.92213	0.483072	2.28695	0.766041	0.799087
0.751091	2.5825	0.493443	2.18232	0.750446	2.58273	0.737296	1.91283	0.484655	2.27204	0.765497	0.767721
0.749298	2.58299	0.494953	2.16567	0.748652	2.58319	0.738622	1.90336	0.486227	2.25692	0.764975	0.736532
0.747504	2.58349	0.496451	2.14876	0.746858	2.58363	0.73994	1.89371	0.487789	2.24155	0.764474	0.705403
0.74571	2.58398	0.497937	2.13157	0.745064	2.5841	0.741252	1.88383	0.489341	2.2258	0.763995	0.674392
0.743915	2.58439	0.499411	2.11417	0.743269	2.58457	0.742556	1.87383	0.490881	2.20977	0.763538	0.64362
0.74212	2.58481	0.500873	2.09657	0.741474	2.585	0.743854	1.86372	0.49241	2.19355	0.763101	0.612929
0.740325	2.58525	0.502323	2.07868	0.739679	2.58538	0.745145	1.85335	0.493927	2.17704	0.762686	0.582403
0.73853	2.58565	0.50376	2.06067	0.737883	2.58575	0.746428	1.84287	0.495433	2.16024	0.762293	0.552108
0.736734	2.58604	0.505185	2.04243	0.736087	2.58618	0.747704	1.83222	0.496928	2.14329	0.76192	0.52198
0.734938	2.58645	0.506597	2.02395	0.734291	2.58656	0.748973	1.82139	0.49841	2.12607	0.761568	0.49199
0.733142	2.58676	0.507996	2.00536	0.732495	2.58692	0.750234	1.81043	0.499881	2.10851	0.761236	0.462176
0.731345	2.58709	0.509382	1.98665	0.730698	2.58726	0.751488	1.79929	0.501339	2.09084	0.760926	0.432618
0.729548	2.58746	0.510755	1.9677	0.728901	2.58753	0.752733	1.78798	0.502785	2.07297	0.760635	0.403277
0.727752	2.5878	0.512115	1.94858	0.727104	2.58789	0.753971	1.77657	0.504218	2.05484	0.760366	0.374171
0.725954	2.58809	0.513462	1.9294	0.725307	2.58821	0.755201	1.76502	0.505638	2.03654	0.760116	0.345242
0.724157	2.58838	0.514795	1.91009	0.72351	2.58845	0.756422	1.7533	0.507046	2.01806	0.759886	0.31657
0.722359	2.58865	0.516115	1.89065	0.721712	2.58873	0.757636	1.7414	0.508441	1.99938	0.759676	0.288115
0.720562	2.58892	0.517421	1.87112	0.719914	2.58901	0.758841	1.72936	0.509823	1.98056	0.759486	0.259898
0.718764	2.58915	0.518713	1.85152	0.718116	2.58927	0.760038	1.71724	0.511192	1.96162	0.759315	0.231961
0.716966	2.58941	0.519992	1.83187	0.716318	2.58949	0.761226	1.70499	0.512548	1.94247	0.759164	0.204191
0.715167	2.58964	0.521258	1.81212	0.71452	2.58973	0.762406	1.69258	0.51389	1.92322	0.759031	0.176754
0.713369	2.58982	0.522509	1.79227	0.712721	2.58993	0.763577	1.67999	0.515219	1.90386	0.758918	0.149591
0.71157	2.59006	0.523747	1.77244	0.710923	2.59012	0.764739	1.6673	0.516534	1.88441	0.758824	0.122583
0.709772	2.59025	0.524971	1.75261	0.709124	2.59032	0.765892	1.65452	0.517836	1.8649	0.758748	0.0958844
0.707973	2.59044	0.526181	1.73281	0.707325	2.59051	0.767037	1.64165	0.519124	1.84522	0.758691	0.0695098
0.706174	2.59062	0.527378	1.71296	0.705526	2.59069	0.768173	1.62858	0.520399	1.82551	0.758651	0.0433903
0.704375	2.59078	0.52856	1.6931	0.703727	2.59076	0.769299	1.61541	0.52166	1.80578	0.75863	0.0174863
0.702575	2.5909	0.529729	1.67334	0.701928	2.59091	0.770416	1.60224	0.522907	1.78594	0.758627	-0.0081834
0.700776	2.59104	0.530884	1.65356	0.700128	2.5911	0.771524	1.58888	0.52414	1.76609	0.758642	-0.0334826
0.698977	2.59114	0.532026	1.63386	0.698329	2.5912	0.772623	1.57537	0.52536	1.74625	0.758674	-0.0585321
0.697177	2.59124	0.533154	1.61431	0.696529	2.59129	0.773712	1.56183	0.526566	1.72645	0.758723	-0.083377
0.695378	2.59133	0.534268	1.59477	0.69473	2.59137	0.774792	1.54819	0.527758	1.70662	0.758789	-0.107911
0.693578	2.59142	0.535369	1.57533	0.69293	2.59143	0.775863	1.53448	0.528936	1.68674	0.758873	-0.132119
0.691779	2.59151	0.536456	1.55601	0.691131	2.59155	0.776923	1.52071	0.5301	1.66697	0.758973	-0.156065
0.689979	2.59158	0.53753	1.53683	0.689331	2.59161	0.777975	1.50674	0.531251	1.6473	0.75909	-0.179786
0.688179	2.59162	0.53859	1.51782	0.687531	2.59161	0.779016	1.49278	0.532388	1.62765	0.759223	-0.20325
0.686379	2.5916	0.539638	1.49886	0.685731	2.59162	0.780048	1.47883	0.533512	1.60799	0.759372	-0.226399
0.68458	2.59167	0.540672	1.48012	0.683932	2.59165	0.78107	1.46467	0.534622	1.58853	0.759537	-0.249211
0.68278	2.59171	0.541694	1.46159	0.682132	2.59169	0.782082	1.45052	0.535718	1.56918	0.759718	-0.271842
0.68098	2.59168	0.542702	1.4432	0.680332	2.59168	0.783085	1.43632	0.536801	1.54987	0.759915	-0.294208
0.67918	2.59163	0.543698	1.425	0.678532	2.59167	0.784077	1.42205	0.537871	1.53073	0.760127	-0.31624
0.677381	2.59162	0.544681	1.40696	0.676733	2.59164	0.78506	1.40779	0.538927	1.51168	0.760354	-0.337999
0.675581	2.59161	0.545652	1.38918	0.674933	2.59157	0.786032	1.39344	0.53997	1.49287	0.760596	-0.359504
0.673781	2.59158	0.546611	1.37168	0.673133	2.59155	0.786995	1.37904	0.541	1.47417	0.760853	-0.380799
