Sym0		Asym0		Sym1		Sym2		Sym3		Asym1		Asym2		Asym3	
462  Points		514  Points		462  Points		440  Points		294  Points		472  Points		391  Points		272  Points	
Freq (MHz)	Vgr (m/ms)	Freq (MHz)	Vgr (m/ms)	Freq (MHz)	Vgr (m/ms)	Freq (MHz)	Vgr (m/ms)	Freq (MHz)	Vgr (m/ms)	Freq (MHz)	Vgr (m/ms)	Freq (MHz)	Vgr (m/ms)	Freq (MHz)	Vgr (m/ms)
1.00018	2.10066	2.54228e-005	0.0944263	1.00108	2.09974	0.449945	0.0627876	0.763763	0.00399669	0.190964	0.0898171	0.572823	0.00379455	0.899866	0.004221
0.998396	2.10168	0.000105734	0.126665	0.999295	2.1007	0.449998	0.0881345	0.763766	0.0063713	0.19104	0.121098	0.572826	0.00520607	0.89987	0.00627802
0.996607	2.10379	0.000240884	0.190966	0.997508	2.10268	0.450095	0.138742	0.763774	0.0111684	0.19117	0.18349	0.572832	0.00799646	0.899877	0.0104433
0.994817	2.10608	0.000430573	0.25498	0.995718	2.10488	0.450234	0.188928	0.763785	0.0159486	0.191352	0.245531	0.57284	0.0107691	0.899888	0.0146016
0.993025	2.1085	0.000674614	0.318582	0.993927	2.10727	0.450416	0.238593	0.763801	0.020695	0.191587	0.307194	0.57285	0.0135864	0.899902	0.0187462
0.99123	2.11109	0.000972493	0.381601	0.992134	2.10981	0.45064	0.287617	0.76382	0.0254542	0.191875	0.368337	0.572863	0.016413	0.89992	0.0229436
0.989434	2.11387	0.00132373	0.444012	0.990338	2.11249	0.450905	0.335842	0.763844	0.0302388	0.192214	0.428845	0.572878	0.0191776	0.899941	0.0270859
0.987635	2.11677	0.00172777	0.505773	0.98854	2.11527	0.451211	0.383268	0.763872	0.0350743	0.192604	0.488644	0.572895	0.0219791	0.899966	0.0311986
0.985833	2.11984	0.00218407	0.566712	0.98674	2.11826	0.451557	0.42974	0.763904	0.039851	0.193045	0.547666	0.572915	0.0248541	0.899994	0.0353319
0.984029	2.12311	0.00269177	0.626731	0.984937	2.12144	0.451942	0.475106	0.76394	0.0445904	0.193536	0.605775	0.572938	0.0277157	0.900026	0.0394265
0.982221	2.12651	0.00325016	0.685792	0.983132	2.12475	0.452365	0.519384	0.76398	0.0494158	0.194076	0.662943	0.572963	0.0305505	0.900061	0.0435239
0.980411	2.13002	0.00385833	0.743901	0.981323	2.12825	0.452826	0.562527	0.764024	0.0542525	0.194664	0.719109	0.57299	0.0334119	0.9001	0.0476268
0.978598	2.13375	0.00451556	0.800906	0.979511	2.13187	0.453322	0.604446	0.764072	0.0590318	0.195299	0.774155	0.573019	0.0363266	0.900142	0.0517406
0.976782	2.13768	0.00522069	0.856748	0.977697	2.13567	0.453854	0.645117	0.764124	0.0638567	0.195981	0.828085	0.573051	0.0392677	0.900188	0.0557962
0.974962	2.14169	0.00597292	0.911466	0.975878	2.13964	0.45442	0.684499	0.764181	0.0686926	0.196708	0.880824	0.573086	0.0421812	0.900237	0.0598156
0.973139	2.14586	0.00677113	0.964979	0.974057	2.14375	0.455018	0.722663	0.764241	0.0735502	0.197479	0.932385	0.573123	0.04512	0.900289	0.0638427
0.971312	2.15028	0.00761438	1.01721	0.972232	2.14803	0.455649	0.759518	0.764306	0.0783714	0.198294	0.982716	0.573163	0.048109	0.900345	0.067805
0.969481	2.15477	0.00850143	1.06815	0.970403	2.15249	0.45631	0.795037	0.764374	0.0831998	0.19915	1.03171	0.573205	0.0511185	0.900405	0.0717981
0.967646	2.15942	0.00943134	1.1178	0.96857	2.15708	0.457001	0.829327	0.764447	0.0881229	0.200049	1.07938	0.57325	0.0541688	0.900468	0.0757728
0.965808	2.16423	0.0104029	1.16615	0.966734	2.16178	0.457721	0.862366	0.764524	0.0929945	0.200987	1.12579	0.573297	0.0572206	0.900534	0.0797105
0.963965	2.1692	0.011415	1.21328	0.964893	2.16667	0.458468	0.894184	0.764605	0.0978437	0.201964	1.17087	0.573347	0.0602753	0.900603	0.0836544
0.962118	2.17432	0.0124667	1.25899	0.963048	2.17173	0.459242	0.924843	0.764691	0.102728	0.202978	1.21464	0.5734	0.0634161	0.900676	0.0875307
0.960266	2.1795	0.0135566	1.30339	0.961199	2.17686	0.460041	0.954309	0.76478	0.107683	0.20403	1.25711	0.573455	0.0665687	0.900752	0.091352
0.95841	2.18489	0.0146838	1.34655	0.959345	2.18216	0.460865	0.982594	0.764874	0.112618	0.204975	1.29301	0.573513	0.0697448	0.900831	0.0952234
0.95655	2.19038	0.0158471	1.38833	0.957487	2.18762	0.461713	1.0098	0.764972	0.117513	0.205801	1.32295	0.573574	0.0729678	0.900914	0.099035
0.954685	2.19599	0.0170454	1.42888	0.955624	2.19317	0.462583	1.03596	0.765074	0.12249	0.206499	1.34707	0.573637	0.0762047	0.901	0.102807
0.952814	2.20174	0.0182777	1.46819	0.953756	2.19881	0.463475	1.06109	0.76518	0.127469	0.207059	1.36583	0.573703	0.0795493	0.901089	0.10658
0.950939	2.20756	0.0195428	1.50621	0.951884	2.20463	0.464388	1.08527	0.765291	0.132453	0.207476	1.3794	0.573772	0.0828688	0.901181	0.110274
0.949059	2.21349	0.0208398	1.54301	0.950006	2.21049	0.465321	1.10844	0.765405	0.137447	0.207745	1.38802	0.573844	0.0862181	0.901277	0.113973
0.947174	2.2195	0.0221675	1.57857	0.948124	2.21644	0.466273	1.13071	0.765524	0.142459	0.208135	1.40025	0.573919	0.0896273	0.901375	0.117679
0.945284	2.22558	0.023525	1.61305	0.946236	2.22256	0.467244	1.15215	0.765648	0.14751	0.208562	1.41335	0.573997	0.0930758	0.901477	0.12132
0.943388	2.2318	0.0249114	1.64637	0.944343	2.2287	0.468233	1.17272	0.765775	0.152557	0.20915	1.43105	0.574077	0.0966031	0.901581	0.124912
0.941487	2.23807	0.0263255	1.67851	0.942445	2.23488	0.469239	1.19251	0.765907	0.157597	0.209903	1.45289	0.574161	0.100128	0.901689	0.128485
0.939581	2.24435	0.0277666	1.70957	0.940541	2.24115	0.470262	1.21148	0.766043	0.162701	0.210829	1.47873	0.574248	0.103726	0.9018	0.132022
0.93767	2.25074	0.0292336	1.73961	0.938633	2.24752	0.4713	1.22976	0.766184	0.167855	0.211937	1.50813	0.574338	0.107394	0.901914	0.135564
0.935753	2.25716	0.0307257	1.76863	0.936718	2.25391	0.472354	1.24738	0.766329	0.172949	0.213233	1.5408	0.57443	0.111037	0.902031	0.139038
0.93383	2.2636	0.0322421	1.79659	0.934799	2.26036	0.473422	1.26426	0.766478	0.178081	0.214557	1.57238	0.574526	0.114795	0.90215	0.142455
0.931902	2.27004	0.0337818	1.82363	0.932873	2.26683	0.474504	1.28051	0.766632	0.18329	0.215908	1.60277	0.574626	0.118619	0.902273	0.14592
0.929969	2.27652	0.0353442	1.84979	0.930943	2.27328	0.4756	1.29618	0.76679	0.188493	0.217284	1.63204	0.574728	0.122416	0.902398	0.14932
0.92803	2.28306	0.0369283	1.87497	0.929007	2.27976	0.476709	1.31122	0.766952	0.193685	0.218684	1.66028	0.574834	0.12632	0.902527	0.15267
0.926085	2.28956	0.0385335	1.89927	0.927065	2.28629	0.47783	1.32574	0.767119	0.198934	0.220108	1.68744	0.574943	0.130275	0.902658	0.155999
0.924135	2.29606	0.0401591	1.92276	0.925117	2.29279	0.478964	1.3397	0.767291	0.204217	0.221555	1.71357	0.575056	0.134256	0.902792	0.159288
0.92218	2.30256	0.0418042	1.94543	0.923165	2.29928	0.480109	1.35317	0.767467	0.209487	0.223023	1.73875	0.575171	0.138365	0.902929	0.162578
0.920218	2.30898	0.0434683	1.96734	0.921206	2.30577	0.481266	1.36615	0.767647	0.214813	0.224512	1.76294	0.575291	0.142492	0.903069	0.165786
0.918252	2.3154	0.0451507	1.98844	0.919242	2.31216	0.482433	1.37864	0.767832	0.220168	0.226022	1.78618	0.575414	0.146654	0.903211	0.168994
0.91628	2.32183	0.0468507	2.00883	0.917273	2.31861	0.483611	1.39069	0.768022	0.225503	0.227551	1.80856	0.57554	0.150886	0.903356	0.172199
0.914302	2.32818	0.0485678	2.02851	0.915298	2.325	0.484799	1.40228	0.768216	0.230877	0.229098	1.83001	0.57567	0.155178	0.903504	0.175321
0.91232	2.33446	0.0503013	2.04749	0.913318	2.33129	0.485996	1.41351	0.768414	0.236331	0.230663	1.85069	0.575804	0.15959	0.903654	0.178437
0.910331	2.34068	0.0520507	2.06587	0.911333	2.33753	0.487203	1.42433	0.768618	0.241782	0.232246	1.87054	0.575942	0.164001	0.903808	0.181538
0.908338	2.34687	0.0538154	2.08362	0.909342	2.34376	0.488419	1.43474	0.768826	0.247229	0.233845	1.88957	0.576083	0.16849	0.903963	0.184611
0.906339	2.353	0.055595	2.10073	0.907346	2.34995	0.489644	1.44481	0.769038	0.252747	0.23546	1.90791	0.576229	0.173055	0.904122	0.187628
0.904335	2.35899	0.0573888	2.11723	0.905345	2.35599	0.490877	1.45451	0.769256	0.258328	0.237091	1.92546	0.576378	0.177693	0.904282	0.190613
0.902327	2.36496	0.0591965	2.13323	0.903338	2.36197	0.492118	1.46389	0.769478	0.263873	0.238736	1.9423	0.576531	0.182395	0.904446	0.193616
0.900313	2.37087	0.0610175	2.14869	0.901327	2.36793	0.493367	1.47294	0.769704	0.269426	0.240395	1.95847	0.576688	0.187147	0.904612	0.196572
0.898294	2.37667	0.0628515	2.16357	0.89931	2.37373	0.494623	1.48165	0.769936	0.275077	0.242067	1.97397	0.576849	0.191996	0.90478	0.199516
0.89627	2.38235	0.0646978	2.178	0.897289	2.37949	0.495887	1.4901	0.770172	0.280762	0.243752	1.98886	0.577014	0.19688	0.904951	0.202434
0.894241	2.38793	0.0665563	2.19194	0.895263	2.38516	0.496994	1.49723	0.770414	0.286437	0.24545	2.00317	0.577184	0.201834	0.905125	0.205302
0.892208	2.39346	0.0684264	2.20538	0.893232	2.39071	0.497942	1.50315	0.77066	0.292169	0.24716	2.01686	0.577358	0.206929	0.9053	0.208151
0.89017	2.39891	0.0703078	2.21846	0.891196	2.39619	0.498729	1.50788	0.770911	0.297938	0.248881	2.02992	0.577536	0.212063	0.905479	0.210959
0.888127	2.40421	0.0722001	2.23106	0.889156	2.40154	0.499353	1.51151	0.771166	0.303699	0.250613	2.04251	0.577719	0.217198	0.905659	0.213768
0.88608	2.40941	0.0741029	2.24325	0.887111	2.40678	0.499812	1.51437	0.771427	0.309524	0.252355	2.05458	0.577905	0.222492	0.905842	0.216576
0.884029	2.41453	0.0760159	2.25505	0.885062	2.41196	0.500107	1.51608	0.771693	0.315396	0.254108	2.06608	0.578097	0.227865	0.906028	0.219386
0.881973	2.41955	0.0779388	2.26645	0.883008	2.41704	0.500531	1.51827	0.771964	0.321285	0.25587	2.07712	0.578293	0.233236	0.906215	0.222116
0.879913	2.42446	0.0798713	2.27754	0.88095	2.42198	0.500992	1.52084	0.772239	0.327206	0.257641	2.08769	0.578494	0.238763	0.906405	0.22485
0.877849	2.42923	0.081813	2.28823	0.878888	2.42688	0.501621	1.52442	0.77252	0.33319	0.259421	2.09779	0.578673	0.243618	0.906598	0.227588
0.875781	2.43395	0.0837636	2.29856	0.876822	2.43163	0.502419	1.5287	0.772806	0.33922	0.261209	2.1075	0.578828	0.247781	0.906793	0.230258
0.873709	2.43856	0.0857229	2.30861	0.874752	2.43623	0.503386	1.53369	0.773097	0.345264	0.263006	2.11672	0.578958	0.251294	0.90699	0.232948
0.871633	2.44307	0.0876906	2.31837	0.872678	2.44078	0.504525	1.53948	0.773394	0.351335	0.26481	2.12551	0.579063	0.254073	0.907189	0.235602
0.869553	2.44742	0.0896665	2.32778	0.8706	2.44523	0.505837	1.54592	0.773695	0.357458	0.266622	2.13395	0.57914	0.256163	0.90739	0.238261
0.86747	2.45171	0.0916503	2.33689	0.868519	2.44955	0.507155	1.55211	0.774002	0.363607	0.26844	2.14202	0.57919	0.257534	0.907594	0.240932
0.865382	2.45588	0.0936416	2.34572	0.866433	2.45379	0.508477	1.55805	0.774313	0.369806	0.270265	2.14971	0.579262	0.259328	0.9078	0.243547
0.863292	2.45997	0.0956404	2.35432	0.864345	2.45793	0.509805	1.56383	0.774631	0.376028	0.272097	2.15701	0.579341	0.261354	0.908008	0.246128
0.861198	2.46397	0.0976464	2.36269	0.862252	2.46195	0.511138	1.56937	0.774953	0.382294	0.273934	2.16398	0.57945	0.264338	0.908219	0.248722
0.859101	2.46779	0.0996594	2.37076	0.860157	2.46591	0.512475	1.57466	0.775281	0.388647	0.275778	2.1706	0.579589	0.267955	0.908432	0.251344
0.857	2.4716	0.101679	2.37855	0.858058	2.46973	0.513816	1.57984	0.775614	0.395016	0.277627	2.17692	0.57976	0.27241	0.908646	0.253939
0.854896	2.47528	0.103705	2.38613	0.855956	2.47344	0.515162	1.58479	0.775953	0.401414	0.279481	2.18292	0.579963	0.277673	0.908864	0.256482
0.85279	2.47888	0.105738	2.39349	0.85385	2.47709	0.516512	1.58952	0.776297	0.407872	0.28134	2.18857	0.580202	0.283757	0.909083	0.259081
0.85068	2.48238	0.107777	2.40067	0.851742	2.48061	0.517866	1.59412	0.776647	0.41437	0.283204	2.19401	0.580446	0.289968	0.909304	0.26163
0.848567	2.48577	0.109822	2.40766	0.849631	2.48406	0.519224	1.59851	0.777002	0.420868	0.285072	2.19913	0.580695	0.296283	0.909528	0.264162
0.846451	2.48909	0.111872	2.41441	0.847517	2.48741	0.520585	1.60272	0.777363	0.427444	0.286944	2.20394	0.58095	0.30261	0.909754	0.266738
0.844333	2.4923	0.113929	2.42093	0.8454	2.49067	0.52195	1.60678	0.777729	0.434096	0.288821	2.20851	0.58121	0.309063	0.909981	0.269242
0.842212	2.49541	0.11599	2.4273	0.84328	2.49391	0.523318	1.61066	0.778101	0.440743	0.290701	2.21284	0.581476	0.315659	0.910212	0.271763
0.840088	2.49851	0.118058	2.43348	0.841157	2.497	0.52469	1.61436	0.778479	0.447457	0.292585	2.21689	0.581747	0.322287	0.910444	0.274318
0.837962	2.5015	0.12013	2.43949	0.839032	2.49998	0.526064	1.6179	0.778862	0.454226	0.294472	2.22064	0.582024	0.328971	0.910678	0.276861
0.835833	2.50435	0.122207	2.44534	0.836905	2.50289	0.527442	1.62131	0.779201	0.460097	0.296362	2.2242	0.582307	0.335763	0.910915	0.279379
0.833702	2.50716	0.124289	2.45102	0.834775	2.50574	0.528822	1.62459	0.779493	0.465187	0.298256	2.22759	0.582595	0.342649	0.911153	0.281929
0.831568	2.5099	0.126377	2.45653	0.832643	2.50856	0.530205	1.62767	0.779737	0.469394	0.300152	2.23068	0.58289	0.349662	0.911394	0.28446
0.829432	2.51256	0.128468	2.46192	0.830508	2.51123	0.531591	1.63061	0.779932	0.472769	0.30205	2.23356	0.58319	0.356739	0.911637	0.286956
0.827294	2.51516	0.130564	2.46717	0.828371	2.51383	0.532979	1.63341	0.780076	0.47523	0.303951	2.23624	0.583496	0.363848	0.911882	0.28946
0.825154	2.51763	0.132665	2.47221	0.826232	2.5164	0.534369	1.63605	0.780169	0.476858	0.305854	2.2387	0.583809	0.371133	0.91213	0.291981
0.823012	2.52007	0.13477	2.47715	0.82409	2.51888	0.535762	1.63857	0.780302	0.479152	0.307759	2.24097	0.584128	0.378467	0.912379	0.294535
0.820867	2.52249	0.136879	2.48198	0.821947	2.52128	0.537157	1.64092	0.780448	0.481535	0.309666	2.24303	0.584453	0.385864	0.912631	0.297077
0.818721	2.52474	0.138992	2.48668	0.819802	2.52358	0.538553	1.64317	0.780648	0.484971	0.311575	2.24491	0.584784	0.393414	0.912884	0.299592
0.816573	2.527	0.141108	2.49125	0.817654	2.52586	0.539952	1.6453	0.780902	0.489264	0.313485	2.24656	0.585122	0.40104	0.91314	0.302135
0.814422	2.5292	0.143229	2.49566	0.815505	2.5281	0.541352	1.64725	0.781213	0.494457	0.315396	2.24808	0.585466	0.408704	0.913398	0.304655
0.81227	2.53127	0.145354	2.49998	0.813354	2.53025	0.542754	1.64907	0.781582	0.500663	0.317309	2.24939	0.585817	0.416508	0.913659	0.307206
0.810117	2.53332	0.147482	2.50422	0.811201	2.53231	0.544157	1.65082	0.782011	0.507789	0.319222	2.25049	0.586175	0.424421	0.913887	0.309479
0.807961	2.53533	0.149613	2.50828	0.809046	2.53433	0.545562	1.65242	0.782445	0.514923	0.321137	2.25148	0.586539	0.43239	0.914083	0.311318
0.805804	2.53728	0.151749	2.51232	0.80689	2.53629	0.546968	1.65382	0.782886	0.52214	0.323052	2.2523	0.58691	0.440466	0.914246	0.312834
0.803645	2.53916	0.153887	2.51621	0.804732	2.5382	0.548375	1.65516	0.783334	0.5294	0.324968	2.25291	0.587288	0.448636	0.914376	0.314229
0.801485	2.54099	0.156029	2.51999	0.802572	2.54009	0.549783	1.65643	0.783787	0.53672	0.326884	2.25337	0.587673	0.456893	0.914471	0.314961
0.799323	2.54273	0.158174	2.5237	0.800411	2.54188	0.551193	1.65751	0.784247	0.544071	0.328801	2.25373	0.588066	0.465234	0.914533	0.315496
0.797159	2.54446	0.160322	2.52727	0.798249	2.5436	0.552603	1.65845	0.784712	0.551437	0.330718	2.25386	0.588465	0.473697	0.914621	0.316548
0.794995	2.54614	0.162473	2.5308	0.796085	2.54528	0.554014	1.65936	0.785185	0.558931	0.332635	2.25385	0.588871	0.482221	0.914717	0.31743
0.792828	2.54774	0.164627	2.53424	0.793919	2.54695	0.555425	1.6601	0.785663	0.566449	0.334552	2.25368	0.589285	0.490855	0.914849	0.31862
0.790661	2.54934	0.166783	2.5376	0.791752	2.54853	0.556838	1.6607	0.786148	0.573979	0.336469	2.2534	0.589706	0.499625	0.915015	0.320251
0.788492	2.55084	0.168943	2.54086	0.789584	2.5501	0.55825	1.66125	0.78664	0.581555	0.338385	2.25298	0.590135	0.508423	0.915218	0.322192
0.786322	2.55233	0.171106	2.54402	0.787414	2.55161	0.559663	1.66164	0.787137	0.589194	0.340301	2.25237	0.590571	0.517355	0.915458	0.324389
0.78415	2.55378	0.173271	2.54712	0.785243	2.55305	0.561077	1.66192	0.787642	0.596945	0.342216	2.2517	0.591015	0.526395	0.915735	0.327014
0.781978	2.55515	0.175438	2.55012	0.783071	2.55446	0.56249	1.66214	0.788153	0.604712	0.344131	2.25084	0.591467	0.535488	0.916014	0.32961
0.779804	2.55653	0.177608	2.55307	0.780898	2.55586	0.563904	1.66225	0.78867	0.612487	0.346045	2.24981	0.591926	0.544688	0.916296	0.332192
0.777629	2.55784	0.179781	2.556	0.778724	2.5572	0.565318	1.66222	0.789195	0.620306	0.347958	2.2487	0.592393	0.553981	0.916579	0.334847
0.775453	2.55911	0.181956	2.5588	0.776548	2.55844	0.566732	1.66209	0.789726	0.628227	0.34987	2.24746	0.592868	0.563362	0.916865	0.337498
0.773276	2.56036	0.184134	2.56152	0.774372	2.55971	0.568145	1.66186	0.790263	0.636199	0.351781	2.24607	0.593351	0.572866	0.917153	0.340148
0.771098	2.56157	0.186313	2.56424	0.772194	2.56097	0.569559	1.66151	0.790808	0.644196	0.353691	2.24454	0.593843	0.582432	0.917444	0.342756
0.768919	2.56271	0.188496	2.56686	0.770016	2.56213	0.570972	1.66109	0.791359	0.652247	0.355599	2.24289	0.594342	0.592109	0.917737	0.345425
0.766738	2.56378	0.19068	2.56938	0.767836	2.56324	0.572384	1.6606	0.791917	0.660324	0.357506	2.24114	0.59485	0.601922	0.918031	0.348123
0.764557	2.56489	0.192866	2.57185	0.765655	2.56435	0.573796	1.65995	0.792482	0.668454	0.359412	2.23931	0.595366	0.611763	0.918329	0.350795
0.762375	2.56599	0.195055	2.57429	0.763474	2.56544	0.575208	1.65919	0.793054	0.676652	0.361315	2.23731	0.59589	0.621698	0.918628	0.353496
0.760193	2.56697	0.197245	2.5767	0.761291	2.56649	0.576619	1.65837	0.793633	0.684922	0.363217	2.23514	0.596423	0.63176	0.91893	0.35621
0.758009	2.56798	0.199438	2.57903	0.759108	2.56748	0.578029	1.65751	0.794219	0.69323	0.365117	2.23294	0.596965	0.641927	0.919234	0.358931
0.755824	2.56894	0.201632	2.58128	0.756924	2.56841	0.579438	1.65649	0.794813	0.701556	0.367016	2.23063	0.597515	0.652185	0.919541	0.361656
0.753639	2.56984	0.203829	2.58346	0.754739	2.56939	0.580846	1.65537	0.795413	0.709931	0.368912	2.22815	0.598075	0.662529	0.919849	0.364422
0.751453	2.57074	0.206027	2.58565	0.752553	2.5703	0.582254	1.65421	0.79602	0.718371	0.370806	2.22555	0.598642	0.672916	0.92016	0.367209
0.749266	2.57159	0.208227	2.58778	0.750367	2.57117	0.58366	1.65291	0.796635	0.726843	0.372698	2.22289	0.599219	0.683405	0.920474	0.369967
0.747079	2.57241	0.210429	2.5898	0.74818	2.57202	0.585066	1.65153	0.797257	0.735372	0.374587	2.22011	0.599805	0.694025	0.92079	0.372709
0.74489	2.57324	0.212632	2.59183	0.745992	2.57283	0.58647	1.65009	0.797886	0.743968	0.376474	2.2172	0.6004	0.704751	0.921108	0.375525
0.742701	2.57402	0.214837	2.5938	0.743803	2.57365	0.587872	1.64856	0.798522	0.752559	0.378359	2.21422	0.601004	0.715529	0.921429	0.378377
0.740512	2.57478	0.217044	2.59575	0.741614	2.57441	0.589274	1.64695	0.799166	0.761227	0.38024	2.21112	0.601617	0.726374	0.921752	0.381207
0.738322	2.57549	0.219253	2.59763	0.739424	2.57512	0.590674	1.64523	0.799817	0.769974	0.38212	2.20793	0.602239	0.737373	0.922077	0.384026
0.736131	2.57619	0.221463	2.59946	0.737234	2.57583	0.592072	1.64344	0.800476	0.77872	0.383996	2.20461	0.602871	0.748449	0.922405	0.38688
0.733939	2.57687	0.223675	2.60127	0.735043	2.57653	0.59347	1.64155	0.801142	0.787506	0.38587	2.20118	0.603512	0.759563	0.922735	0.389751
0.731748	2.5775	0.225888	2.60298	0.732851	2.57719	0.594865	1.6396	0.801815	0.796352	0.387741	2.1977	0.604163	0.770776	0.923068	0.392671
0.729555	2.57812	0.228102	2.6047	0.730659	2.57781	0.596259	1.63762	0.802496	0.805228	0.389608	2.19412	0.604824	0.782079	0.923403	0.395575
0.727362	2.57872	0.230318	2.60639	0.728466	2.5784	0.59765	1.63547	0.803185	0.814159	0.391473	2.19044	0.605494	0.793468	0.923741	0.398471
0.725169	2.57928	0.232536	2.60801	0.726273	2.57901	0.599041	1.63327	0.803881	0.823118	0.393334	2.18664	0.606173	0.804938	0.924081	0.401444
0.722975	2.57984	0.234755	2.60963	0.724079	2.57959	0.600429	1.63104	0.804585	0.83213	0.395192	2.18277	0.606863	0.816531	0.924424	0.404374
0.72078	2.5804	0.236975	2.61119	0.721885	2.58011	0.601815	1.62873	0.805297	0.841169	0.397047	2.17879	0.607562	0.828184	0.924769	0.407324
0.718585	2.58087	0.239197	2.61271	0.71969	2.5806	0.603199	1.62633	0.806016	0.850222	0.398899	2.17471	0.608272	0.839868	0.925116	0.410323
0.71639	2.58134	0.241419	2.61423	0.717495	2.58109	0.604581	1.62384	0.806743	0.859402	0.400746	2.17063	0.608991	0.851687	0.925467	0.413307
0.714194	2.58179	0.243643	2.61565	0.7153	2.58159	0.605961	1.62132	0.807478	0.868525	0.402591	2.16638	0.60972	0.863574	0.925819	0.416323
