Sym0		Asym0		Sym1		Sym2		Sym3		Sym4		Asym1		Asym2		Asym3		Asym4	
469  Points		496  Points		235  Points		201  Points		187  Points		131  Points		340  Points		213  Points		175  Points		110  Points	
Freq (MHz)	Vph (m/ms)	Freq (MHz)	Vph (m/ms)	Freq (MHz)	Vph (m/ms)	Freq (MHz)	Vph (m/ms)	Freq (MHz)	Vph (m/ms)	Freq (MHz)	Vph (m/ms)	Freq (MHz)	Vph (m/ms)	Freq (MHz)	Vph (m/ms)	Freq (MHz)	Vph (m/ms)	Freq (MHz)	Vph (m/ms)
0.00242254	5.12654	0.00049538	0.191476	0.27952	494.681	0.466942	624.332	0.559022	1147.25	0.838528	1889.54	0.139793	232.297	0.419263	2939.44	0.698773	2340.23	0.93387	6039.08
0.00719872	5.1264	0.000912614	0.259349	0.279588	186.797	0.466968	278.023	0.559063	393.993	0.838551	609.647	0.140004	91.2982	0.419294	390.284	0.698795	567.993	0.933876	859.659
0.0119746	5.12626	0.00145187	0.326223	0.279717	115.184	0.467015	178.844	0.559142	237.866	0.838597	363.475	0.140398	56.9525	0.419371	209.056	0.698843	323.242	0.933891	462.774
0.01675	5.12603	0.00210935	0.391907	0.279907	83.3024	0.467083	131.833	0.55926	170.384	0.838666	258.939	0.140972	41.5007	0.419495	142.796	0.698919	225.919	0.933916	316.611
0.0215247	5.12575	0.00288041	0.456199	0.280159	65.2772	0.467171	104.403	0.559418	132.751	0.838759	201.115	0.141725	32.7417	0.419665	108.457	0.699021	173.654	0.933949	240.621
0.0262985	5.12538	0.00375994	0.518925	0.280471	53.6938	0.46728	86.4313	0.559615	108.753	0.838875	164.413	0.14265	27.1184	0.419882	87.4551	0.699151	141.041	0.933992	194.051
0.0310712	5.12496	0.00474243	0.579948	0.280843	45.6268	0.46741	73.7464	0.55985	92.1194	0.839015	139.049	0.143744	23.2146	0.420145	73.2878	0.699307	118.753	0.934043	162.589
0.0358425	5.12444	0.00582205	0.639151	0.281276	39.6895	0.467561	64.3158	0.560125	79.9135	0.839177	120.474	0.145	20.3548	0.420454	63.0886	0.699489	102.558	0.934104	139.909
0.0406123	5.12387	0.00699277	0.696441	0.281768	35.1393	0.467733	57.0304	0.560438	70.5768	0.839363	106.284	0.146414	18.176	0.42081	55.3975	0.699699	90.2587	0.934175	122.785
0.0453803	5.1232	0.00824866	0.751763	0.28232	31.5431	0.467926	51.2337	0.56079	63.2053	0.839572	95.0923	0.147978	16.4657	0.421212	49.3922	0.699935	80.6019	0.934254	109.399
0.0501464	5.12247	0.00958371	0.805076	0.282931	28.6309	0.468141	46.5124	0.561181	57.2387	0.839805	86.0392	0.149686	15.0913	0.421659	44.5748	0.700198	72.8194	0.934343	98.6469
0.0549103	5.12166	0.0109921	0.856359	0.2836	26.226	0.468377	42.5931	0.56161	52.3113	0.84006	78.566	0.151532	13.9655	0.422152	40.6256	0.700487	66.4143	0.934442	89.8218
0.0596717	5.12077	0.012468	0.905609	0.284326	24.2075	0.468635	39.2879	0.562077	48.1741	0.840339	72.2927	0.153508	13.0289	0.422691	37.3304	0.700803	61.0512	0.93455	82.4483
0.0644306	5.1198	0.014006	0.952843	0.28511	22.4901	0.468916	36.4633	0.562583	44.6519	0.840641	66.9523	0.155608	12.2393	0.423275	34.5399	0.701145	56.4956	0.934667	76.1956
0.0691864	5.11875	0.0156011	0.998092	0.285949	21.0121	0.469219	34.022	0.563126	41.6175	0.840966	62.3515	0.157825	11.5661	0.423905	32.1472	0.701514	52.5781	0.934794	70.8265
0.0739391	5.11761	0.0172482	1.0414	0.286845	19.7273	0.469545	31.8912	0.563707	38.9766	0.841314	58.3468	0.160153	10.9865	0.424579	30.0735	0.70191	49.1739	0.934931	66.1661
0.0786884	5.11639	0.0189429	1.0828	0.287795	18.6008	0.469894	30.0155	0.564325	36.6579	0.841685	54.8297	0.162268	10.5443	0.425298	28.2594	0.702331	46.1887	0.935078	62.0829
0.0834341	5.11509	0.0206808	1.12237	0.288799	17.6056	0.470266	28.352	0.564981	34.606	0.842079	51.7166	0.16413	10.2063	0.426061	26.6597	0.702779	43.5497	0.935235	58.4761
0.0881758	5.1137	0.0224578	1.16015	0.289857	16.7204	0.470663	26.8667	0.565674	32.7779	0.842497	48.9417	0.16571	9.95045	0.426868	25.2388	0.703254	41.2004	0.935401	55.267
0.0929133	5.11222	0.0242705	1.19622	0.290967	15.9283	0.471083	25.5328	0.566404	31.1391	0.842937	46.4531	0.166985	9.7617	0.427719	23.9688	0.703754	39.0957	0.935578	52.3933
0.0976463	5.11064	0.0261153	1.23063	0.292129	15.2159	0.471528	24.3284	0.567171	29.6619	0.8434	44.2087	0.167935	9.62994	0.428613	22.8271	0.704281	37.1996	0.935765	49.8051
0.102374	5.10898	0.0279892	1.26347	0.293341	14.5719	0.471998	23.2357	0.567974	28.3238	0.843886	42.1745	0.168549	9.54854	0.429551	21.7955	0.704833	35.4826	0.935963	47.4621
0.107097	5.10721	0.0298894	1.29478	0.294603	13.9872	0.472493	22.24	0.568813	27.1062	0.844394	40.3224	0.16944	9.43537	0.430531	20.8592	0.705412	33.9207	0.936171	45.3309
0.111815	5.10534	0.0318131	1.32465	0.295913	13.4542	0.473014	21.3292	0.569688	25.9938	0.844926	38.6291	0.170418	9.31722	0.431554	20.0056	0.706016	32.494	0.936389	43.3842
0.116527	5.10338	0.0337581	1.35315	0.297272	12.9667	0.473562	20.4929	0.570598	24.9737	0.84548	37.0752	0.171766	9.16417	0.432619	19.2247	0.706646	31.1857	0.936618	41.5992
0.121232	5.1013	0.0357221	1.38032	0.298677	12.5192	0.474136	19.7226	0.571544	24.035	0.846057	35.6442	0.173498	8.98229	0.433726	18.5076	0.707302	29.9819	0.936858	39.9564
0.125931	5.09912	0.0377032	1.40625	0.300128	12.1073	0.474737	19.0108	0.572525	23.1685	0.846656	34.3223	0.175631	8.7782	0.434874	17.8471	0.707983	28.8706	0.937109	38.4397
0.130623	5.09682	0.0396997	1.43098	0.301624	11.7269	0.475366	18.3513	0.573541	22.3663	0.847278	33.0974	0.178186	8.5586	0.436063	17.2368	0.70869	27.8416	0.937371	37.035
0.135307	5.0944	0.0417098	1.45459	0.303164	11.3747	0.476023	17.7387	0.574591	21.6217	0.847923	31.9594	0.181185	8.32984	0.437293	16.6714	0.709423	26.8863	0.937644	35.7305
0.139984	5.09187	0.0437322	1.47712	0.304747	11.0479	0.476709	17.1681	0.575675	20.9288	0.848589	30.8995	0.18425	8.12283	0.438563	16.1463	0.710181	25.997	0.937928	34.5159
0.144653	5.08921	0.0457655	1.49864	0.306372	10.7439	0.477424	16.6357	0.576794	20.2824	0.849279	29.9098	0.187378	7.93482	0.439873	15.6575	0.710964	25.1673	0.938224	33.3822
0.149312	5.08642	0.0475453	1.5166	0.307821	10.4959	0.478169	16.1377	0.577946	19.6782	0.84999	28.9839	0.190566	7.76351	0.441222	15.2014	0.711772	24.3915	0.938531	32.3217
0.153963	5.08349	0.0490679	1.53136	0.309081	10.2959	0.478944	15.6711	0.579131	19.1123	0.850724	28.1157	0.19381	7.60693	0.44261	14.7749	0.712605	23.6645	0.93885	31.3275
0.158603	5.08042	0.0503302	1.54319	0.310139	10.1378	0.479749	15.2331	0.58035	18.5812	0.85148	27.3	0.197107	7.46342	0.444037	14.3754	0.713463	22.9819	0.939181	30.3936
0.163233	5.07721	0.0513304	1.55232	0.310986	10.0173	0.480586	14.8212	0.581601	18.0818	0.852258	26.5324	0.200454	7.33153	0.445501	14.0006	0.714345	22.3399	0.939524	29.5148
0.167852	5.07385	0.0520668	1.5589	0.311615	9.93115	0.481456	14.4333	0.582884	17.6116	0.853058	25.8087	0.203849	7.21001	0.447004	13.6482	0.715253	21.735	0.939878	28.6863
0.17246	5.07033	0.0525386	1.56306	0.31202	9.87701	0.482357	14.0674	0.5842	17.1681	0.85388	25.1254	0.207289	7.09778	0.448543	13.3163	0.716184	21.1641	0.940245	27.904
0.177055	5.06664	0.0532174	1.56897	0.312605	9.80058	0.483292	13.7218	0.585547	16.7491	0.854724	24.4791	0.210772	6.9939	0.450119	13.0035	0.717141	20.6245	0.940624	27.1642
0.181637	5.06279	0.053956	1.57529	0.313246	9.71928	0.48426	13.395	0.586926	16.3527	0.85559	23.867	0.214294	6.89754	0.451732	12.708	0.718121	20.1138	0.941016	26.4635
0.186206	5.05875	0.0549617	1.58373	0.314126	9.61161	0.485262	13.0855	0.588337	15.9773	0.856477	23.2866	0.217855	6.80799	0.45338	12.4286	0.719126	19.6296	0.94142	25.7989
0.19076	5.05453	0.0562355	1.59414	0.315251	9.48001	0.486299	12.7921	0.589778	15.6212	0.857386	22.7354	0.221452	6.7246	0.455064	12.1641	0.720155	19.1702	0.941837	25.1677
0.195298	5.05011	0.0577784	1.60636	0.316629	9.32734	0.487372	12.5136	0.591249	15.283	0.858317	22.2113	0.225083	6.6468	0.456783	11.9133	0.721207	18.7336	0.942266	24.5675
0.19982	5.04549	0.0595918	1.62021	0.318271	9.15671	0.48848	12.249	0.592751	14.9615	0.859269	21.7124	0.228746	6.57411	0.458535	11.6753	0.722284	18.3182	0.942709	23.9962
0.204325	5.04065	0.0616767	1.63546	0.320189	8.9714	0.489625	11.9974	0.594283	14.6555	0.860243	21.2371	0.23244	6.50606	0.460322	11.4492	0.723384	17.9226	0.943165	23.4516
0.208811	5.03559	0.0637653	1.65008	0.322141	8.79646	0.490807	11.758	0.595845	14.364	0.861237	20.7836	0.236163	6.44227	0.462143	11.2342	0.724507	17.5455	0.943633	22.932
0.213279	5.0303	0.0658571	1.66409	0.324127	8.6311	0.492026	11.5298	0.597436	14.086	0.862253	20.3505	0.239914	6.38238	0.463996	11.0294	0.725654	17.1855	0.944116	22.4357
0.217725	5.02476	0.0679516	1.67752	0.326145	8.4746	0.493283	11.3123	0.599056	13.8206	0.863291	19.9366	0.243691	6.32606	0.465882	10.8343	0.726824	16.8416	0.944611	21.9613
0.22215	5.01896	0.0700485	1.69041	0.328197	8.32633	0.49458	11.1048	0.600704	13.567	0.864349	19.5406	0.247493	6.27303	0.467552	10.6717	0.728018	16.5127	0.945121	21.5072
0.226552	5.0129	0.0721475	1.70278	0.33028	8.18569	0.495915	10.9066	0.602382	13.3245	0.865428	19.1614	0.251318	6.22303	0.468995	10.5381	0.729234	16.198	0.945643	21.0724
0.23093	5.00655	0.0742483	1.71465	0.332395	8.05218	0.497111	10.7411	0.604087	13.0924	0.866528	18.798	0.255166	6.17582	0.4702	10.4311	0.730472	15.8965	0.94618	20.6555
0.235282	4.99991	0.0763505	1.72606	0.334541	7.92529	0.498154	10.6051	0.60582	12.8701	0.867649	18.4494	0.259034	6.1312	0.471162	10.3485	0.731734	15.6075	0.946731	20.2555
0.239607	4.99296	0.0784539	1.73703	0.336718	7.8046	0.499034	10.4959	0.607581	12.657	0.86879	18.1148	0.262923	6.08896	0.471874	10.2889	0.733018	15.3303	0.947296	19.8715
0.243903	4.98568	0.0805583	1.74757	0.338925	7.6897	0.49974	10.4117	0.609369	12.4525	0.869953	17.7934	0.266831	6.04894	0.472331	10.2513	0.734324	15.0641	0.947875	19.5025
0.248169	4.97807	0.0826636	1.75772	0.341163	7.58025	0.500266	10.3509	0.611184	12.2563	0.871135	17.4844	0.270756	6.01098	0.472992	10.1979	0.735652	14.8083	0.948468	19.1476
0.252402	4.9701	0.0847695	1.76748	0.343432	7.4759	0.500605	10.3124	0.613026	12.0677	0.872338	17.1871	0.274699	5.97492	0.473714	10.1407	0.737003	14.5624	0.949076	18.8062
0.256602	4.96177	0.0868758	1.77688	0.345731	7.37634	0.501096	10.2579	0.614894	11.8865	0.873561	16.901	0.278657	5.94063	0.474702	10.0644	0.738375	14.3257	0.949699	18.4774
0.260765	4.95305	0.0889825	1.78593	0.348061	7.28132	0.501635	10.1994	0.616789	11.7122	0.874805	16.6254	0.282631	5.908	0.475961	9.97008	0.739769	14.0979	0.950336	18.1606
0.264892	4.94393	0.0910894	1.79466	0.350423	7.19056	0.502377	10.1214	0.618709	11.5444	0.876068	16.3597	0.286619	5.87691	0.477499	9.85936	0.741184	13.8785	0.950988	17.8551
0.268978	4.93439	0.0931965	1.80308	0.352815	7.10384	0.503329	10.025	0.620655	11.3828	0.877352	16.1035	0.290621	5.84726	0.479324	9.73386	0.742621	13.667	0.951655	17.5605
0.273022	4.92442	0.0953035	1.81119	0.35524	7.02095	0.504501	9.91167	0.622626	11.2271	0.878655	15.8563	0.294635	5.81895	0.481445	9.59539	0.744079	13.463	0.952337	17.2761
0.277023	4.914	0.0974106	1.81903	0.357697	6.94169	0.505906	9.78322	0.624622	11.077	0.879978	15.6175	0.298662	5.79189	0.483595	9.46253	0.745558	13.2661	0.953034	17.0014
0.280978	4.90311	0.0995174	1.82659	0.360187	6.86587	0.507558	9.64146	0.626381	10.9506	0.881321	15.3869	0.302699	5.76601	0.485773	9.33496	0.747058	13.076	0.953747	16.7359
0.284884	4.89175	0.101624	1.8339	0.362711	6.79335	0.509253	9.50543	0.627896	10.8458	0.882683	15.1641	0.306747	5.74122	0.487979	9.21241	0.748579	12.8924	0.954475	16.4793
0.28874	4.87989	0.103731	1.84096	0.365271	6.72395	0.510991	9.37483	0.629159	10.7612	0.884065	14.9485	0.310805	5.71747	0.490212	9.09459	0.75012	12.7149	0.955218	16.231
0.292544	4.86753	0.105837	1.84778	0.367866	6.65755	0.512773	9.24941	0.630164	10.6956	0.885466	14.74	0.314872	5.69468	0.492471	8.98127	0.751682	12.5433	0.955978	15.9908
0.296293	4.85466	0.107942	1.85438	0.370499	6.59401	0.514598	9.12891	0.630906	10.6481	0.886886	14.5382	0.318948	5.6728	0.494757	8.87221	0.753264	12.3772	0.956753	15.7581
0.299985	4.84125	0.110048	1.86077	0.37317	6.53322	0.516467	9.0131	0.631383	10.618	0.888326	14.3427	0.323031	5.65178	0.497069	8.76719	0.754866	12.2165	0.957544	15.5328
0.30362	4.82732	0.112153	1.86695	0.375881	6.47506	0.518379	8.90174	0.632071	10.5751	0.889784	14.1534	0.327122	5.63155	0.499407	8.66601	0.756488	12.0609	0.958351	15.3145
0.306738	4.81474	0.114257	1.87294	0.378633	6.41943	0.520336	8.79463	0.632821	10.529	0.891262	13.9698	0.33122	5.61208	0.50177	8.56848	0.75813	11.9102	0.959175	15.1028
0.309358	4.80369	0.116362	1.87874	0.381427	6.36624	0.522337	8.69159	0.633846	10.4673	0.892758	13.7919	0.335323	5.59331	0.504157	8.47442	0.759791	11.7641	0.960014	14.8974
0.3115	4.79433	0.118465	1.88436	0.384265	6.3154	0.524382	8.59241	0.635151	10.3906	0.894273	13.6192	0.339433	5.57521	0.506569	8.38367	0.761471	11.6225	0.960871	14.6982
0.313176	4.78679	0.120569	1.8898	0.387148	6.26682	0.526472	8.49693	0.63674	10.3	0.895806	13.4517	0.343547	5.55774	0.509004	8.29606	0.763171	11.4851	0.961743	14.5048
0.314398	4.78116	0.122671	1.89509	0.390078	6.22043	0.528606	8.40498	0.638621	10.1965	0.897358	13.2891	0.347666	5.54086	0.511464	8.21144	0.76489	11.3518	0.962633	14.3171
0.315176	4.77752	0.124774	1.90022	0.393055	6.17614	0.530783	8.3164	0.640801	10.0814	0.898928	13.1312	0.351789	5.52454	0.513946	8.12969	0.766404	11.2388	0.963539	14.1347
0.316289	4.77224	0.126875	1.90519	0.39608	6.13388	0.533005	8.23106	0.643004	9.96987	0.900517	12.9778	0.355915	5.50874	0.516451	8.05067	0.767705	11.1448	0.964463	13.9575
0.317491	4.76644	0.128977	1.91002	0.399156	6.09359	0.535271	8.1488	0.645229	9.86191	0.902123	12.8287	0.360045	5.49343	0.518979	7.97426	0.768789	11.0686	0.965403	13.7852
0.319111	4.75844	0.131077	1.91471	0.402282	6.05519	0.53758	8.0695	0.647477	9.75732	0.903748	12.6837	0.364177	5.4786	0.521529	7.90034	0.769651	11.0092	0.96636	13.6177
0.321138	4.74814	0.133178	1.91927	0.405459	6.01861	0.539933	7.99303	0.649747	9.65595	0.90539	12.5428	0.368311	5.4642	0.5241	7.8288	0.770288	10.9662	0.967335	13.4548
0.323556	4.73543	0.135278	1.9237	0.408689	5.98379	0.542329	7.91928	0.652038	9.55766	0.907051	12.4056	0.372446	5.45022	0.526693	7.75954	0.770697	10.9388	0.968328	13.2963
0.326345	4.72017	0.137377	1.92801	0.41197	5.95067	0.544768	7.84812	0.654351	9.46234	0.908728	12.2722	0.376583	5.43663	0.529307	7.69246	0.771286	10.8998	0.969337	13.142
0.329483	4.70218	0.139476	1.9322	0.415304	5.91916	0.547249	7.77945	0.656686	9.36986	0.910424	12.1423	0.38072	5.42341	0.531942	7.62748	0.771928	10.8578	0.970365	12.9919
0.332553	4.68372	0.141574	1.93628	0.41869	5.88922	0.549773	7.71316	0.659041	9.2801	0.912137	12.0159	0.384857	5.41054	0.534597	7.56449	0.772806	10.8014	0.97141	12.8456
0.335556	4.6648	0.143672	1.94025	0.422128	5.86077	0.552338	7.64917	0.661418	9.19296	0.913867	11.8927	0.388995	5.39799	0.537273	7.50343	0.773922	10.7312	0.972474	12.7032
0.338492	4.64545	0.145769	1.94411	0.425617	5.83375	0.554945	7.58737	0.663815	9.10833	0.915614	11.7727	0.393131	5.38576	0.539968	7.4442	0.775281	10.6478	0.973555	12.5644
0.341362	4.62569	0.147866	1.94787	0.429157	5.8081	0.557593	7.52768	0.666233	9.02612	0.917379	11.6557	0.397266	5.37382	0.542683	7.38675	0.776888	10.5522	0.974654	12.4291
0.344166	4.60555	0.149962	1.95154	0.432746	5.78374	0.560281	7.47001	0.668671	8.94622	0.91893	11.5562	0.401399	5.36215	0.545417	7.33099	0.778749	10.4453	0.975772	12.2973
0.346907	4.58506	0.152058	1.95511	0.436384	5.76062	0.563009	7.41429	0.671129	8.86856	0.920263	11.4731	0.405531	5.35074	0.54817	7.27687	0.780627	10.3413	0.976908	12.1687
0.349584	4.56424	0.154154	1.95859	0.440068	5.73868	0.565776	7.36042	0.673607	8.79304	0.921372	11.4056	0.409659	5.33958	0.550941	7.22431	0.782523	10.24	0.978063	12.0433
0.3522	4.54313	0.156249	1.96198	0.443798	5.71785	0.568583	7.30835	0.676104	8.7196	0.922253	11.3529	0.413785	5.32864	0.553732	7.17326	0.784436	10.1414	0.979236	11.921
0.354757	4.52176	0.158344	1.96529	0.447572	5.69807	0.571427	7.25799	0.678621	8.64815	0.922904	11.3146	0.417907	5.31792	0.55654	7.12367	0.786366	10.0454	0.980428	11.8017
0.357255	4.50016	0.160438	1.96852	0.451387	5.67929	0.57431	7.20929	0.681158	8.57861	0.923321	11.2902	0.422026	5.30741	0.559367	7.07547	0.788314	9.9518	0.981483	11.7
0.359697	4.47837	0.162532	1.97167	0.455244	5.66144	0.577229	7.16217	0.683713	8.51093	0.923923	11.2554	0.42614	5.29708	0.562211	7.02861	0.790278	9.86062	0.982393	11.615
0.362085	4.45641	0.164625	1.97475	0.459139	5.64448	0.580185	7.11658	0.686287	8.44503	0.924579	11.2179	0.430249	5.28693	0.565073	6.98305	0.792259	9.77175	0.983153	11.5459
0.364421	4.4343	0.166718	1.97775	0.46307	5.62834	0.583177	7.07245	0.68888	8.38085	0.925474	11.1675	0.434353	5.27694	0.567952	6.93875	0.794257	9.68509	0.98376	11.4919
0.366706	4.4121	0.168811	1.98069	0.467037	5.61299	0.586204	7.02974	0.691492	8.31834	0.926612	11.1045	0.438451	5.26711	0.570849	6.89564	0.796272	9.60058	0.984209	11.4527
0.368944	4.38981	0.170903	1.98355	0.471036	5.59837	0.589266	6.98837	0.694122	8.25743	0.927996	11.0296	0.442543	5.25743	0.573762	6.8537	0.798302	9.51814	0.984497	11.4277
0.371135	4.36746	0.172995	1.98635	0.475067	5.58443	0.592362	6.94831	0.69677	8.19807	0.929632	10.9435	0.446629	5.24788	0.576693	6.81289	0.800349	9.43771	0.984914	11.3921
0.373282	4.34509	0.175087	1.98909	0.479126	5.57114	0.595491	6.90951	0.699436	8.1402	0.931524	10.8468	0.450707	5.23845	0.57964	6.77315	0.802412	9.35921	0.985369	11.3536
0.375387	4.32271	0.177178	1.99176	0.483213	5.55845	0.598653	6.87191	0.70212	8.08379	0.933432	10.7524	0.454778	5.22914	0.582604	6.73447	0.80449	9.28258	0.985992	11.3019
0.377452	4.30035	0.179269	1.99438	0.487326	5.54631	0.601847	6.83546	0.704822	8.02877	0.935356	10.6601	0.458841	5.21994	0.585584	6.69679	0.806585	9.20776	0.986786	11.2373
0.379478	4.27803	0.181359	1.99694	0.491463	5.53471	0.605072	6.80014	0.707542	7.9751	0.937296	10.57	0.462896	5.21084	0.588581	6.6601	0.808695	9.13469	0.987757	11.1603
0.381468	4.25576	0.183449	1.99944	0.495622	5.52359	0.608329	6.76589	0.710278	7.92275	0.939252	10.4819	0.466941	5.20182	0.591593	6.62435	0.810821	9.06332	0.988909	11.0718
0.383424	4.23357	0.185539	2.00189	0.499802	5.51293	0.611615	6.73267	0.713032	7.87166	0.941223	10.3958	0.470978	5.19289	0.594622	6.58952	0.812961	8.99358	0.990249	10.9723
0.385346	4.21147	0.187629	2.00429	0.504001	5.5027	0.614931	6.70045	0.715804	7.82181	0.943209	10.3116	0.475004	5.18403	0.597667	6.55558	0.815118	8.92544	0.99161	10.8752
0.387237	4.18948	0.189718	2.00663	0.508218	5.49286	0.618275	6.66919	0.718592	7.77314	0.945211	10.2293	0.479021	5.17524	0.600728	6.52249	0.817289	8.85884	0.99299	10.7801
0.389099	4.16761	0.191807	2.00893	0.512451	5.4834	0.621648	6.63885	0.721397	7.72562	0.947229	10.1488	0.483026	5.16651	0.603804	6.49024	0.819475	8.79373	0.99439	10.6872
0.390932	4.14587	0.193896	2.01118	0.516699	5.47428	0.625049	6.6094	0.724219	7.67922	0.949261	10.0701	0.48702	5.15783	0.606896	6.45879	0.821676	8.73007	0.99581	10.5964
0.392739	4.12428	0.195984	2.01339	0.520961	5.46548	0.628476	6.58081	0.727057	7.6339	0.951308	9.99303	0.491003	5.1492	0.610004	6.42813	0.823892	8.66781	0.997251	10.5076
0.39452	4.10285	0.198072	2.01555	0.525235	5.45698	0.63193	6.55305	0.729912	7.58963	0.953371	9.91763	0.494973	5.14061	0.613128	6.39823	0.826123	8.60691	0.998712	10.4206
0.396278	4.08158	0.20016	2.01766	0.529521	5.44877	0.635409	6.52608	0.732783	7.54637	0.955448	9.84383	0.498931	5.13205	0.616267	6.36907	0.828368	8.54733	1.00019	10.3356
0.398013	4.06048	0.202248	2.01974	0.533817	5.44081	0.638914	6.49988	0.735671	7.50411	0.95754	9.77159	0.502875	5.12352	0.619422	6.34062	0.830627	8.48903		
0.399727	4.03957	0.204335	2.02177	0.538122	5.43309	0.642444	6.47441	0.738575	7.46281	0.959646	9.70085	0.506806	5.11502	0.622592	6.31286	0.832901	8.43198		
0.40142	4.01885	0.206422	2.02377	0.542435	5.4256	0.645997	6.44967	0.741495	7.42243	0.961767	9.63157	0.510723	5.10653	0.625778	6.28578	0.835189	8.37614		
0.403094	3.99831	0.208509	2.02572	0.546755	5.41832	0.649574	6.42561	0.74443	7.38296	0.963902	9.56372	0.514625	5.09805	0.628979	6.25936	0.83749	8.32147		
0.404751	3.97798	0.210596	2.02764	0.551081	5.41123	0.653174	6.40221	0.747382	7.34437	0.966051	9.49725	0.518511	5.08958	0.632196	6.23358	0.839806	8.26794		
0.40639	3.95785	0.212682	2.02952	0.555413	5.40432	0.656796	6.37946	0.750349	7.30664	0.968215	9.43213	0.522383	5.08111	0.635429	6.20842	0.842136	8.21552		
