Sym0		Asym0		Sym1		Sym2		Sym3		Sym4		Asym1		Asym2		Asym3		Asym4	
469  Points		497  Points		231  Points		196  Points		183  Points		128  Points		338  Points		209  Points		171  Points		106  Points	
Freq (MHz)	Vgr (m/ms)	Freq (MHz)	Vgr (m/ms)	Freq (MHz)	Vgr (m/ms)	Freq (MHz)	Vgr (m/ms)	Freq (MHz)	Vgr (m/ms)	Freq (MHz)	Vgr (m/ms)	Freq (MHz)	Vgr (m/ms)	Freq (MHz)	Vgr (m/ms)	Freq (MHz)	Vgr (m/ms)	Freq (MHz)	Vgr (m/ms)
0.0021051	5.23921	5.62818e-005	0.201095	0.279522	0.0785299	0.468629	0.0332934	0.559024	0.0468791	0.838528	0.0251171	0.139801	0.245368	0.419264	0.0360445	0.698773	0.024741	0.937239	0.00769998
0.00698645	5.23902	0.000243641	0.270805	0.279595	0.113044	0.46866	0.0446634	0.559067	0.0688183	0.838551	0.0381492	0.140029	0.347272	0.419297	0.0621621	0.698796	0.0397909	0.937246	0.0126784
0.0118674	5.23852	0.000560898	0.408891	0.279732	0.182014	0.468712	0.0674939	0.559152	0.112736	0.838599	0.0642814	0.140448	0.549713	0.419379	0.11444	0.698847	0.0699258	0.937263	0.022633
0.0167479	5.23782	0.00100556	0.543777	0.279934	0.250815	0.468786	0.0904499	0.559277	0.156627	0.838671	0.0904716	0.141054	0.748857	0.41951	0.166702	0.698926	0.10002	0.937288	0.0325815
0.0216275	5.23692	0.00157417	0.674537	0.2802	0.319349	0.468881	0.11351	0.559444	0.20039	0.838768	0.116631	0.141843	0.943752	0.41969	0.218858	0.699033	0.130106	0.937323	0.0425906
0.0265063	5.23571	0.00226249	0.800411	0.280529	0.387643	0.468997	0.136706	0.559651	0.244117	0.838889	0.14273	0.142812	1.13352	0.419918	0.270948	0.699168	0.160175	0.937368	0.0526479
0.0313837	5.23425	0.00306564	0.92069	0.280922	0.45553	0.469136	0.160027	0.559899	0.287772	0.839034	0.168853	0.143955	1.31727	0.420195	0.322905	0.699332	0.19021	0.937421	0.0627284
0.0362597	5.23256	0.00397809	1.03483	0.281378	0.522968	0.469296	0.183524	0.560187	0.331282	0.839203	0.194952	0.145267	1.4945	0.42052	0.374745	0.699523	0.220251	0.937485	0.0728553
0.041134	5.23058	0.00499394	1.14256	0.281896	0.589949	0.469477	0.207226	0.560516	0.374652	0.839397	0.221002	0.14674	1.66468	0.420893	0.426423	0.699742	0.250231	0.937557	0.0830747
0.0460063	5.22837	0.00610712	1.24368	0.282477	0.656308	0.469682	0.231193	0.560885	0.417885	0.839615	0.247102	0.148369	1.82749	0.421315	0.477924	0.699989	0.280161	0.937639	0.093333
0.0508765	5.22594	0.0073114	1.33803	0.283119	0.722084	0.469908	0.255398	0.561295	0.460992	0.839857	0.273153	0.150145	1.98283	0.421784	0.529289	0.700264	0.310065	0.937731	0.103669
0.0557443	5.22319	0.0086004	1.42567	0.283823	0.787204	0.470158	0.279856	0.561744	0.503919	0.840124	0.299109	0.152063	2.13054	0.422301	0.580383	0.700567	0.339918	0.937833	0.11416
0.0606093	5.22011	0.00996798	1.50676	0.284586	0.8516	0.47043	0.304603	0.562234	0.546635	0.840415	0.325093	0.154115	2.2707	0.422865	0.631229	0.700898	0.369741	0.937944	0.124668
0.0654714	5.21682	0.0114081	1.58148	0.285409	0.915207	0.470725	0.329707	0.562763	0.589146	0.84073	0.35106	0.156295	2.40342	0.423477	0.681872	0.701256	0.399504	0.938065	0.135285
0.0703303	5.21323	0.0129149	1.65007	0.286292	0.97804	0.471044	0.355159	0.563331	0.631468	0.841069	0.37692	0.158594	2.52898	0.424136	0.732254	0.701642	0.429146	0.938196	0.146044
0.0751857	5.20928	0.0144828	1.71283	0.287232	1.03999	0.471387	0.38094	0.563939	0.673558	0.841432	0.402785	0.161007	2.64767	0.424842	0.782334	0.702056	0.458769	0.938337	0.156869
0.0800372	5.20504	0.0161066	1.77009	0.288229	1.10096	0.471754	0.407162	0.564586	0.715404	0.841819	0.428661	0.163198	2.7457	0.425594	0.832103	0.702497	0.48835	0.938488	0.167826
0.0848847	5.20051	0.0177812	1.8222	0.289283	1.1611	0.472146	0.433751	0.565272	0.756983	0.842231	0.454412	0.165126	2.82543	0.426392	0.881545	0.702966	0.51785	0.93865	0.178899
0.0897278	5.19563	0.019502	1.86951	0.290393	1.22021	0.472562	0.460782	0.565997	0.798318	0.842666	0.480133	0.166762	2.88878	0.427236	0.930696	0.703462	0.54726	0.938822	0.190133
0.0945662	5.19042	0.0212648	1.91236	0.291557	1.27831	0.473004	0.488257	0.56676	0.839388	0.843126	0.505866	0.16808	2.9373	0.428126	0.979487	0.703985	0.576564	0.939004	0.201468
0.0993996	5.18482	0.0230655	1.95111	0.292775	1.3354	0.473472	0.51618	0.567561	0.880145	0.843609	0.531478	0.169063	2.97193	0.429061	1.02785	0.704536	0.6058	0.939197	0.212933
0.104228	5.17882	0.0249005	1.98605	0.294046	1.39143	0.473966	0.544633	0.5684	0.920643	0.844116	0.557066	0.169698	2.99376	0.430042	1.07587	0.705114	0.634977	0.939401	0.224583
0.10905	5.17246	0.0267663	2.01756	0.295368	1.44636	0.474487	0.573561	0.569277	0.960844	0.844647	0.582609	0.17062	3.02464	0.431066	1.1235	0.705719	0.664034	0.939615	0.23631
0.113866	5.16567	0.02866	2.04593	0.296741	1.50018	0.475035	0.602999	0.57019	1.00074	0.845202	0.60806	0.171632	3.05728	0.432135	1.17071	0.706352	0.692996	0.939841	0.248191
0.118675	5.15847	0.0305787	2.07133	0.298163	1.55296	0.475611	0.633018	0.571141	1.04033	0.84578	0.633473	0.173025	3.10071	0.433248	1.21753	0.707011	0.721844	0.940078	0.260236
0.123478	5.1508	0.0325197	2.09414	0.299634	1.60454	0.476214	0.66354	0.572129	1.07959	0.846382	0.65881	0.174815	3.15394	0.434404	1.26392	0.707697	0.75061	0.940326	0.272387
0.128273	5.14265	0.0344809	2.11457	0.301153	1.65506	0.476847	0.694626	0.573153	1.11856	0.847008	0.68407	0.17702	3.21561	0.435603	1.30982	0.708409	0.779284	0.940586	0.284751
0.133061	5.13404	0.03646	2.13281	0.302718	1.70444	0.477509	0.726331	0.574213	1.15717	0.847657	0.709321	0.17966	3.28464	0.436845	1.35527	0.709149	0.807774	0.940857	0.297247
0.13784	5.12488	0.0384551	2.14913	0.304329	1.75268	0.4782	0.758612	0.575309	1.19541	0.848329	0.734482	0.182756	3.35966	0.438128	1.40031	0.709915	0.836191	0.941139	0.309861
0.14261	5.11519	0.0404646	2.16361	0.305984	1.79986	0.478922	0.791534	0.576441	1.23338	0.849025	0.759536	0.18592	3.43049	0.439454	1.44485	0.710707	0.864532	0.941434	0.322637
0.147372	5.10491	0.0424868	2.17652	0.307683	1.84595	0.479675	0.825004	0.577608	1.27101	0.849745	0.78452	0.189148	3.49729	0.440821	1.48887	0.711526	0.892724	0.941741	0.335593
0.152123	5.094	0.0445203	2.18808	0.309198	1.88528	0.48046	0.859132	0.578809	1.30827	0.850487	0.80944	0.192437	3.56028	0.442228	1.53245	0.71237	0.920763	0.942059	0.348686
0.156864	5.0825	0.0463007	2.19702	0.310514	1.91812	0.481276	0.893917	0.580045	1.3452	0.851253	0.834305	0.195782	3.61976	0.443676	1.57552	0.713241	0.948715	0.94239	0.361909
0.161594	5.07028	0.0478238	2.20393	0.31162	1.94486	0.482125	0.929282	0.581316	1.38178	0.852042	0.859059	0.199182	3.6759	0.445164	1.61808	0.714138	0.976496	0.942734	0.375319
0.166312	5.05735	0.0490867	2.20921	0.312505	1.96579	0.483008	0.965368	0.58262	1.41803	0.852854	0.883737	0.202632	3.72891	0.446691	1.66014	0.715061	1.00415	0.94309	0.388881
0.171017	5.04363	0.0500874	2.21312	0.313161	1.98083	0.483924	1.00209	0.583958	1.45391	0.853689	0.908339	0.20613	3.77896	0.448258	1.70164	0.716009	1.0317	0.943458	0.402601
0.17571	5.02915	0.0508242	2.21592	0.313584	1.99049	0.484875	1.03943	0.585329	1.48941	0.854546	0.932859	0.209674	3.82629	0.449862	1.74267	0.716983	1.05905	0.94384	0.416419
0.180389	5.01383	0.0512963	2.21757	0.314196	2.0044	0.485861	1.07749	0.586734	1.5246	0.855427	0.95729	0.21326	3.87104	0.451505	1.78319	0.717983	1.08627	0.944234	0.430432
0.185053	4.99754	0.0519755	2.21979	0.314865	2.01921	0.486883	1.11618	0.58817	1.55946	0.85633	0.981616	0.216887	3.91335	0.453185	1.82314	0.719007	1.11339	0.944642	0.444615
0.189701	4.98034	0.0527146	2.22219	0.315783	2.03922	0.487941	1.15554	0.589639	1.59394	0.857256	1.00588	0.220552	3.95339	0.454902	1.86255	0.720057	1.14033	0.945063	0.458918
0.194333	4.96212	0.0537209	2.22527	0.316958	2.06423	0.489036	1.1956	0.59114	1.62804	0.858204	1.03001	0.224254	3.99129	0.456656	1.90145	0.721132	1.16709	0.945497	0.473389
0.198947	4.94282	0.0549956	2.22884	0.318397	2.09399	0.490169	1.23623	0.592673	1.66183	0.859175	1.05404	0.227989	4.02715	0.458445	1.93985	0.722232	1.19374	0.945945	0.488048
0.203543	4.92239	0.0565396	2.23285	0.320111	2.12824	0.49134	1.27759	0.594237	1.69526	0.860168	1.07799	0.231758	4.06109	0.46027	1.97768	0.723357	1.22023	0.946407	0.502792
0.20812	4.90073	0.0583543	2.2371	0.322112	2.16686	0.49255	1.31957	0.595832	1.72837	0.861184	1.10188	0.235557	4.09322	0.46213	2.01496	0.724506	1.24654	0.946882	0.517703
0.212675	4.87783	0.0604407	2.24136	0.324149	2.20473	0.493799	1.36216	0.597458	1.76111	0.862222	1.12563	0.239385	4.12364	0.464025	2.05172	0.72568	1.27266	0.947371	0.532805
0.217209	4.85356	0.0625308	2.24507	0.32622	2.24187	0.495088	1.40543	0.599114	1.79349	0.863281	1.14925	0.243241	4.1524	0.465954	2.08796	0.726877	1.29868	0.947875	0.547993
0.221719	4.82787	0.0646241	2.24824	0.328326	2.27838	0.496417	1.44928	0.6008	1.82551	0.864363	1.17284	0.247123	4.17967	0.467916	2.12368	0.7281	1.3245	0.948392	0.563356
0.226205	4.80066	0.0667202	2.25099	0.330466	2.3144	0.497788	1.4937	0.602515	1.85725	0.865467	1.19628	0.251029	4.2055	0.469652	2.15436	0.729345	1.35014	0.948924	0.578847
0.230665	4.77182	0.0688186	2.25336	0.332639	2.34992	0.499201	1.53867	0.604261	1.88864	0.866592	1.21959	0.254959	4.22988	0.471152	2.18014	0.730615	1.37564	0.949471	0.59452
0.235097	4.74137	0.0709191	2.25535	0.334844	2.38503	0.500466	1.57832	0.606035	1.91964	0.867739	1.24283	0.258911	4.25298	0.472406	2.20136	0.731909	1.40093	0.950032	0.61034
0.2395	4.7091	0.0730212	2.25701	0.337083	2.41987	0.50157	1.61249	0.607838	1.95037	0.868908	1.26596	0.262884	4.27482	0.473406	2.21796	0.733226	1.42609	0.950608	0.626307
0.243872	4.67497	0.0751248	2.25838	0.339354	2.45451	0.502501	1.64087	0.609669	1.98077	0.870098	1.28892	0.266877	4.29545	0.474146	2.23002	0.734566	1.45106	0.951199	0.642419
0.248211	4.63894	0.0772295	2.25955	0.341657	2.48911	0.503249	1.66347	0.611528	2.0108	0.87131	1.31185	0.270888	4.31495	0.474622	2.23773	0.73593	1.47581	0.951805	0.658604
0.252516	4.60085	0.0793352	2.26046	0.343992	2.52373	0.503805	1.68027	0.613416	2.04048	0.872543	1.33463	0.274917	4.33335	0.475309	2.2487	0.737316	1.50042	0.952427	0.675008
0.256784	4.56064	0.0814416	2.26113	0.346359	2.55847	0.504164	1.69102	0.615331	2.06987	0.873797	1.35727	0.278963	4.35071	0.476059	2.26067	0.738726	1.52488	0.953063	0.691554
0.261014	4.51824	0.0835486	2.26165	0.348759	2.59353	0.504684	1.70646	0.617273	2.099	0.875072	1.37985	0.283024	4.36708	0.477086	2.27682	0.740158	1.5491	0.953715	0.708241
0.265204	4.47365	0.0856559	2.26202	0.351192	2.62897	0.505255	1.72331	0.619242	2.12774	0.876368	1.40229	0.2871	4.38248	0.478395	2.29699	0.741612	1.57317	0.954383	0.725062
0.26935	4.42672	0.0877636	2.26225	0.353658	2.66489	0.50604	1.7463	0.621238	2.15614	0.877685	1.42461	0.29119	4.39692	0.479993	2.32117	0.743089	1.59706	0.955066	0.742004
0.273452	4.37739	0.0898714	2.26236	0.356158	2.70149	0.507048	1.77558	0.62326	2.1843	0.879023	1.44678	0.295294	4.41051	0.481889	2.34913	0.744588	1.62075	0.955766	0.759117
0.277507	4.32568	0.0919792	2.26241	0.358692	2.73887	0.508289	1.81121	0.625308	2.21213	0.880381	1.46885	0.299409	4.42324	0.484092	2.38081	0.746109	1.64424	0.956481	0.77635
0.281513	4.27156	0.0940871	2.26233	0.361261	2.77715	0.509776	1.85324	0.627382	2.23967	0.88176	1.4908	0.303536	4.43513	0.486325	2.41192	0.747652	1.66758	0.957212	0.793751
0.285467	4.21502	0.0961948	2.26214	0.363867	2.81643	0.511526	1.9018	0.62921	2.26339	0.883159	1.51264	0.307673	4.44624	0.488587	2.44256	0.749217	1.69073	0.95796	0.811268
0.289367	4.15614	0.0983024	2.2619	0.366509	2.8568	0.51332	1.95068	0.630783	2.28344	0.884578	1.53436	0.311821	4.4566	0.490877	2.47275	0.750802	1.71367	0.958724	0.828943
0.293211	4.09493	0.10041	2.2616	0.36919	2.89845	0.51516	1.99985	0.632095	2.29997	0.886018	1.5559	0.315978	4.4662	0.493194	2.50239	0.75241	1.73642	0.959505	0.846788
0.296997	4.03146	0.102517	2.2613	0.37191	2.94139	0.517047	2.04926	0.633139	2.31281	0.887478	1.57738	0.320143	4.47504	0.495539	2.53156	0.754038	1.75898	0.960302	0.864754
0.300724	3.96591	0.104623	2.2609	0.374671	2.98567	0.518979	2.09883	0.63391	2.32227	0.888957	1.59871	0.324316	4.48323	0.497912	2.56028	0.755687	1.7814	0.961116	0.882814
0.304387	3.89837	0.10673	2.26044	0.377474	3.03144	0.520958	2.14855	0.634405	2.32838	0.890457	1.61993	0.328497	4.49072	0.50031	2.58848	0.757358	1.80361	0.961947	0.901064
0.307988	3.829	0.108835	2.26002	0.38032	3.07871	0.522983	2.19839	0.635119	2.33708	0.891976	1.64098	0.332684	4.49751	0.502735	2.61621	0.759048	1.82562	0.962795	0.919473
0.311522	3.758	0.110941	2.25952	0.383211	3.12739	0.525054	2.24829	0.635898	2.34643	0.893515	1.66192	0.336878	4.50369	0.505185	2.64351	0.760759	1.84743	0.96366	0.937979
0.31499	3.68565	0.113046	2.25902	0.386147	3.17748	0.527172	2.29821	0.636963	2.35907	0.895073	1.68277	0.341077	4.50927	0.507661	2.67042	0.762491	1.8691	0.964543	0.956682
0.31839	3.61215	0.11515	2.25851	0.389132	3.22904	0.529337	2.34811	0.638318	2.37504	0.89665	1.70345	0.34528	4.51418	0.510161	2.6968	0.764242	1.89053	0.965443	0.975484
0.321297	3.54744	0.117254	2.25796	0.392164	3.28188	0.531547	2.39792	0.639968	2.39417	0.898247	1.72401	0.349488	4.51851	0.512686	2.72277	0.766014	1.91178	0.96636	0.994412
0.323733	3.49191	0.119358	2.25743	0.395247	3.33591	0.533805	2.44759	0.641921	2.41642	0.899863	1.74441	0.3537	4.52225	0.515235	2.74835	0.767805	1.9329	0.967296	1.01352
0.325718	3.44581	0.121461	2.25691	0.398381	3.39105	0.536108	2.4971	0.644184	2.44171	0.901497	1.76469	0.357915	4.5254	0.517807	2.77349	0.769381	1.95111	0.968249	1.03276
0.327269	3.40922	0.123563	2.25636	0.401566	3.44708	0.538458	2.5464	0.646471	2.46673	0.903151	1.7849	0.362133	4.528	0.520403	2.79821	0.770737	1.9665	0.96922	1.05212
0.328399	3.38228	0.125665	2.25575	0.404804	3.50377	0.540853	2.59543	0.648781	2.49148	0.904823	1.80495	0.366352	4.52999	0.523021	2.82251	0.771866	1.97915	0.97021	1.07166
0.329118	3.36515	0.127767	2.25519	0.408095	3.56093	0.543294	2.64416	0.651114	2.51597	0.906514	1.82483	0.370574	4.53143	0.525662	2.84649	0.772764	1.9892	0.971217	1.09133
0.330144	3.34045	0.129868	2.25465	0.411439	3.61841	0.54578	2.69254	0.653469	2.54019	0.908224	1.84461	0.374796	4.53237	0.528326	2.87009	0.773427	1.99638	0.972243	1.11111
0.331251	3.31353	0.131968	2.25413	0.414837	3.67582	0.548311	2.74058	0.655847	2.56413	0.909952	1.86423	0.379019	4.53277	0.531011	2.89324	0.773853	2.001	0.973288	1.13105
0.332742	3.27718	0.134068	2.25358	0.418289	3.73298	0.550887	2.78814	0.658247	2.58786	0.911698	1.88371	0.383243	4.53256	0.533717	2.9161	0.774467	2.00787	0.974351	1.15115
0.334605	3.23132	0.136167	2.253	0.421793	3.78972	0.553507	2.83525	0.660669	2.61129	0.913462	1.90311	0.387465	4.53187	0.536444	2.93862	0.775136	2.01509	0.975433	1.17136
0.336822	3.17616	0.138266	2.25246	0.42535	3.84567	0.55617	2.88188	0.663113	2.63451	0.915244	1.92236	0.391687	4.53065	0.539193	2.96076	0.77605	2.02483	0.976533	1.19171
0.339375	3.11208	0.140364	2.25194	0.428959	3.9006	0.558877	2.92797	0.665578	2.6575	0.917044	1.94144	0.395908	4.5289	0.541961	2.98263	0.777212	2.03723	0.977653	1.21225
0.34224	3.03954	0.142462	2.25145	0.432619	3.95439	0.561626	2.9735	0.668065	2.68025	0.918861	1.96041	0.400126	4.52664	0.54475	3.00415	0.778628	2.05203	0.978792	1.23292
0.345039	2.96826	0.14456	2.25092	0.436328	4.00681	0.564418	3.01842	0.670573	2.70275	0.920697	1.97924	0.404343	4.52386	0.547559	3.02535	0.780301	2.06931	0.979951	1.25366
0.347771	2.89853	0.146657	2.25039	0.440085	4.05763	0.567251	3.06278	0.673101	2.72499	0.92231	1.99558	0.408556	4.52053	0.550388	3.04627	0.782238	2.08899	0.981128	1.27457
0.35044	2.83052	0.148753	2.24991	0.443889	4.10674	0.570125	3.10649	0.67565	2.74706	0.923696	2.00942	0.412766	4.5167	0.553236	3.06692	0.784193	2.10846	0.982326	1.29567
0.353046	2.76436	0.150849	2.24942	0.447737	4.15403	0.573039	3.14952	0.67822	2.76889	0.92485	2.02077	0.416972	4.51237	0.556103	3.08727	0.786167	2.12776	0.983543	1.31683
0.355591	2.70023	0.152945	2.24895	0.451629	4.19939	0.575994	3.19187	0.68081	2.79051	0.925766	2.02968	0.421174	4.50749	0.558989	3.10741	0.788158	2.14689	0.984779	1.33814
0.358077	2.63813	0.15504	2.24849	0.455563	4.24273	0.578987	3.23351	0.68342	2.8119	0.926443	2.03625	0.425372	4.50213	0.561893	3.1273	0.790167	2.16587	0.986036	1.35966
0.360507	2.57823	0.157134	2.24805	0.459535	4.28399	0.582019	3.27448	0.68605	2.8331	0.926877	2.04047	0.429564	4.49622	0.564816	3.14691	0.792194	2.18466	0.987148	1.37844
0.362881	2.52063	0.159229	2.24757	0.463545	4.32315	0.585089	3.31473	0.688699	2.8541	0.927502	2.0465	0.43375	4.48979	0.567757	3.16634	0.794238	2.20328	0.988107	1.39456
0.365203	2.46524	0.161323	2.24711	0.467591	4.36027	0.588196	3.35427	0.691368	2.8749	0.928184	2.053	0.43793	4.48284	0.570716	3.18554	0.796299	2.22171	0.988909	1.40798
0.367475	2.41213	0.163416	2.24673	0.47167	4.39527	0.591339	3.39305	0.694056	2.89551	0.929115	2.06183	0.442103	4.47537	0.573693	3.20456	0.798378	2.24001	0.989549	1.41857
0.369698	2.36129	0.165509	2.24632	0.475781	4.42816	0.594518	3.43107	0.696763	2.91592	0.930299	2.073	0.446269	4.46739	0.576687	3.2234	0.800473	2.25813	0.990022	1.42631
0.371875	2.31266	0.167602	2.24586	0.479922	4.45903	0.597732	3.46836	0.69949	2.93616	0.931738	2.08641	0.450428	4.45889	0.579699	3.24205	0.802586	2.27609	0.990326	1.43136
0.374008	2.2663	0.169694	2.24549	0.48409	4.48794	0.600981	3.50488	0.702235	2.95621	0.933438	2.10201	0.454578	4.44985	0.582729	3.26053	0.804715	2.2939	0.990766	1.43866
0.376098	2.22206	0.171786	2.24511	0.488284	4.51496	0.604263	3.54068	0.704998	2.97608	0.935405	2.1198	0.458719	4.44023	0.585775	3.27886	0.80686	2.31151	0.991246	1.4465
0.378148	2.17991	0.173878	2.24471	0.492503	4.54004	0.607579	3.57575	0.70778	2.99583	0.937388	2.13749	0.462852	4.43012	0.588838	3.29706	0.809022	2.32904	0.991903	1.45722
0.38016	2.13986	0.175969	2.24432	0.496744	4.56327	0.610926	3.61002	0.710581	3.01538	0.939388	2.15498	0.466974	4.41946	0.591919	3.31518	0.8112	2.34637	0.992741	1.47084
0.382136	2.10178	0.17806	2.24398	0.501006	4.58485	0.614306	3.64357	0.713399	3.03478	0.941404	2.1724	0.471087	4.40823	0.595016	3.33313	0.813394	2.36353	0.993764	1.48736
0.384076	2.06557	0.18015	2.24363	0.505288	4.60472	0.617716	3.67638	0.716235	3.05404	0.943436	2.18972	0.475189	4.3965	0.59813	3.35097	0.815604	2.38057	0.99498	1.50685
0.385985	2.03124	0.18224	2.24327	0.509587	4.62297	0.621156	3.70846	0.71909	3.07312	0.945484	2.20684	0.479279	4.38423	0.60126	3.36875	0.81783	2.39744	0.996394	1.52931
0.387861	1.99869	0.18433	2.24298	0.513902	4.63971	0.624626	3.73984	0.721962	3.09211	0.947548	2.22386	0.483358	4.37139	0.604407	3.38647	0.820072	2.41419	0.99783	1.55186
0.389709	1.96781	0.18642	2.24262	0.518232	4.65496	0.628125	3.77044	0.724852	3.1109	0.949628	2.24075	0.487425	4.35798	0.60757	3.40408	0.822329	2.43084	0.999286	1.5746
0.391528	1.93856	0.188509	2.24229	0.522576	4.66882	0.631652	3.80035	0.727759	3.1296	0.951724	2.25748	0.491479	4.34402	0.61075	3.42164	0.824601	2.44733	1.00076	1.58601
0.393321	1.91086	0.190598	2.24201	0.526932	4.68135	0.635206	3.82959	0.730683	3.14822	0.953835	2.27408	0.495519	4.3295	0.613946	3.43917	0.826889	2.46367		
0.395089	1.88464	0.192687	2.24169	0.531299	4.69263	0.638788	3.85809	0.733625	3.16664	0.955961	2.29055	0.499546	4.31443	0.617159	3.45661	0.829192	2.47986		
0.396833	1.85984	0.194775	2.24139	0.535676	4.70266	0.642396	3.88592	0.736584	3.18497	0.958103	2.30695	0.503559	4.29885	0.620387	3.47405	0.83151	2.49594		
0.398555	1.83642	0.196863	2.24112	0.540062	4.71156	0.646029	3.9131	0.73956	3.20322	0.96026	2.32317	0.507557	4.28267	0.623632	3.49149	0.833843	2.51189		
0.400255	1.81427	0.198951	2.24085	0.544456	4.71938	0.649687	3.93957	0.742553	3.22135	0.962432	2.33926	0.511539	4.2659	0.626893	3.50885	0.836191	2.52774		
0.401935	1.79335	0.201039	2.24056	0.548856	4.72611	0.65337	3.96541	0.745563	3.23939	0.964619	2.35525	0.515506	4.24861	0.63017	3.52624	0.838553	2.5435		
0.403597	1.77358	0.203126	2.24031	0.553262	4.73186	0.657076	3.9906	0.748589	3.25735	0.966821	2.37105	0.519456	4.23082	0.633464	3.54366	0.84093	2.55911		
0.40524	1.75491	0.205214	2.24004	0.557673	4.73663	0.660806	4.01516	0.751632	3.27519	0.969037	2.38678	0.523389	4.21243	0.636774	3.56101	0.843322	2.57456		
0.406867	1.7373	0.207301	2.23975	0.562088	4.74052	0.664558	4.03909	0.754692	3.29297	0.971268	2.40238	0.527305	4.19346	0.640099	3.5784	0.845728	2.58995		
