Sym0		Asym0		Sym1		Sym2		Sym3		Sym4		Asym1		Asym2		Asym3		Asym4	
426  Points		527  Points		425  Points		405  Points		353  Points		253  Points		457  Points		401  Points		346  Points		216  Points	
Freq (MHz)	Vgr (m/ms)	Freq (MHz)	Vgr (m/ms)	Freq (MHz)	Vgr (m/ms)	Freq (MHz)	Vgr (m/ms)	Freq (MHz)	Vgr (m/ms)	Freq (MHz)	Vgr (m/ms)	Freq (MHz)	Vgr (m/ms)	Freq (MHz)	Vgr (m/ms)	Freq (MHz)	Vgr (m/ms)	Freq (MHz)	Vgr (m/ms)
0.279509	0.00981987	0.000351985	0.265377	0.27951	0.0115684	0.441185	0.00883388	0.559017	0.00886632	0.838526	0.00341288	0.139763	0.0723898	0.419267	0.0169884	0.698772	0.00679893	0.882371	0.00825414
0.279518	0.0152668	0.000599235	0.299869	0.279521	0.0169917	0.441193	0.0150939	0.559026	0.0147876	0.838529	0.00652153	0.13983	0.108099	0.419283	0.0231438	0.698779	0.010004	0.882378	0.0113532
0.279538	0.0261875	0.000910758	0.36841	0.279542	0.027915	0.441213	0.0276485	0.559045	0.0266189	0.838538	0.012698	0.139964	0.179339	0.41931	0.0354577	0.698791	0.0163235	0.882392	0.0175743
0.279567	0.0371159	0.00128573	0.435986	0.279573	0.0388484	0.441244	0.04016	0.559075	0.0384162	0.838552	0.0188987	0.140165	0.250115	0.419349	0.0477808	0.698809	0.0225903	0.882411	0.0237907
0.279607	0.0479863	0.00172317	0.502436	0.279614	0.049729	0.441288	0.0526586	0.559116	0.0502188	0.838573	0.0250746	0.14043	0.320182	0.419399	0.0601223	0.698833	0.0288983	0.882436	0.0299981
0.279657	0.0588872	0.00222196	0.567587	0.279666	0.0606502	0.441342	0.0652045	0.559169	0.0620321	0.838599	0.0312006	0.140761	0.389344	0.419461	0.0725006	0.698863	0.0352156	0.882467	0.0361873
0.279717	0.0698494	0.00278081	0.631239	0.279727	0.0715797	0.441409	0.0776988	0.559232	0.0737933	0.838631	0.0373735	0.141156	0.457502	0.419534	0.084806	0.698899	0.0415513	0.882504	0.0424134
0.279787	0.080714	0.00339821	0.693357	0.279799	0.0824523	0.441487	0.0901629	0.559306	0.0855971	0.838669	0.0435671	0.141614	0.524458	0.419619	0.0971122	0.69894	0.0478505	0.882546	0.04864
0.279867	0.0916036	0.0040728	0.753872	0.279881	0.0933576	0.441577	0.10264	0.559392	0.0974126	0.838712	0.0497287	0.142133	0.590035	0.419715	0.10942	0.698988	0.0541503	0.882594	0.0547943
0.279958	0.102543	0.00480296	0.812647	0.279973	0.104255	0.441679	0.115143	0.559488	0.109178	0.838761	0.0558995	0.142713	0.654172	0.419823	0.121731	0.699041	0.0604509	0.882648	0.0610237
0.280058	0.113435	0.00558708	0.869625	0.280075	0.115137	0.441792	0.127625	0.559595	0.120918	0.838816	0.0620887	0.143352	0.716748	0.419942	0.134047	0.6991	0.0667533	0.882708	0.0672571
0.280169	0.124306	0.00642341	0.924767	0.280187	0.126062	0.441916	0.140064	0.559713	0.132679	0.838877	0.0682415	0.144049	0.777668	0.420073	0.146302	0.699166	0.0730593	0.882774	0.0734249
0.28029	0.135208	0.00731028	0.978069	0.28031	0.136924	0.442053	0.15249	0.559842	0.144481	0.838944	0.0743948	0.144801	0.836811	0.420215	0.158581	0.699237	0.0793725	0.882845	0.0796083
0.280421	0.146099	0.00824594	1.02945	0.280443	0.147808	0.442201	0.164892	0.559982	0.156221	0.839016	0.0805491	0.145608	0.89416	0.420368	0.170835	0.699313	0.0857001	0.882922	0.0858228
0.280562	0.156968	0.00922854	1.07896	0.280585	0.158738	0.44236	0.177319	0.560133	0.167909	0.839094	0.0867054	0.146467	0.949751	0.420533	0.18311	0.699396	0.0919832	0.883005	0.0920261
0.280713	0.167866	0.0102565	1.12664	0.280738	0.16961	0.442531	0.18972	0.560295	0.179639	0.839177	0.0928657	0.147258	0.99668	0.420709	0.195356	0.699485	0.0982505	0.883093	0.0982072
0.280875	0.178749	0.0113279	1.17241	0.280901	0.180442	0.442713	0.202071	0.560468	0.19138	0.839267	0.0990338	0.147961	1.03557	0.420897	0.207543	0.699579	0.104559	0.883188	0.104417
0.281046	0.189602	0.0124411	1.21636	0.281075	0.191339	0.442907	0.214396	0.560652	0.203071	0.839362	0.105218	0.148563	1.06685	0.421096	0.219759	0.69968	0.110879	0.883288	0.110611
0.281228	0.200468	0.0135945	1.25846	0.281258	0.20222	0.443113	0.226741	0.560846	0.214734	0.839463	0.11136	0.149051	1.0912	0.421307	0.231959	0.699786	0.117145	0.883394	0.116773
0.28142	0.21136	0.0147861	1.2988	0.281451	0.213069	0.44333	0.239053	0.561052	0.226414	0.839569	0.117492	0.149418	1.10882	0.421528	0.244129	0.699898	0.123452	0.883506	0.122946
0.281622	0.222232	0.0160146	1.33745	0.281655	0.223927	0.443558	0.2513	0.561268	0.238054	0.839682	0.123677	0.149655	1.11991	0.421762	0.256309	0.700016	0.129767	0.883623	0.129138
0.281834	0.233063	0.0172783	1.37438	0.281869	0.234803	0.443798	0.263561	0.561496	0.249691	0.8398	0.129821	0.15	1.13569	0.422006	0.268438	0.70014	0.136026	0.883746	0.135298
0.282056	0.243885	0.0185756	1.40971	0.282093	0.245642	0.444049	0.275778	0.561734	0.261318	0.839924	0.135957	0.150381	1.15254	0.422262	0.280539	0.700269	0.142318	0.883875	0.141465
0.282289	0.254761	0.0199052	1.44347	0.282326	0.25648	0.444312	0.287982	0.561983	0.272926	0.840053	0.142076	0.150908	1.17517	0.422529	0.292655	0.700405	0.148602	0.88401	0.147645
0.282531	0.265601	0.0212654	1.47568	0.28257	0.267316	0.444586	0.300158	0.562242	0.284497	0.840188	0.148236	0.151588	1.20318	0.422807	0.30473	0.700546	0.154872	0.88415	0.153782
0.282783	0.27644	0.0226549	1.50649	0.282825	0.278148	0.444871	0.312278	0.562513	0.296067	0.840329	0.154403	0.152433	1.23605	0.423097	0.316793	0.700694	0.161186	0.884296	0.159975
0.283046	0.287279	0.0240726	1.53588	0.283089	0.288973	0.445168	0.324361	0.562794	0.307635	0.840476	0.160513	0.153452	1.27339	0.423397	0.328836	0.700847	0.167443	0.884448	0.166137
0.283319	0.298044	0.0255169	1.56388	0.283363	0.299782	0.445476	0.336442	0.563086	0.319126	0.840628	0.166652	0.154658	1.31461	0.423709	0.340836	0.701006	0.17373	0.884606	0.172235
0.283601	0.308881	0.0269867	1.5906	0.283647	0.310635	0.445795	0.348518	0.563389	0.330607	0.840787	0.172778	0.155901	1.35415	0.424032	0.352824	0.70117	0.180006	0.884769	0.178424
0.283894	0.319715	0.0284808	1.61614	0.283942	0.321427	0.446125	0.360512	0.563702	0.342072	0.84095	0.178878	0.157181	1.39198	0.424367	0.364788	0.701341	0.186259	0.884938	0.184577
0.284197	0.33047	0.0299982	1.64048	0.284207	0.330807	0.446467	0.372489	0.564026	0.353575	0.84112	0.185	0.158495	1.42818	0.424712	0.376705	0.701518	0.19254	0.885113	0.190657
0.28451	0.341286	0.0315376	1.66367	0.284438	0.338842	0.446819	0.38443	0.564361	0.36501	0.841295	0.191163	0.159842	1.46283	0.425069	0.3886	0.7017	0.198802	0.885294	0.196813
0.284833	0.352078	0.0330983	1.68581	0.284634	0.345476	0.447183	0.396301	0.564706	0.37638	0.841476	0.197264	0.161221	1.49594	0.425436	0.400525	0.701888	0.205102	0.88548	0.202971
0.285166	0.362822	0.034679	1.70695	0.284792	0.350653	0.447558	0.408179	0.565062	0.387767	0.841663	0.203387	0.16263	1.52758	0.425815	0.412364	0.702082	0.211329	0.885672	0.209061
0.285509	0.373617	0.036279	1.7271	0.284909	0.354542	0.447944	0.419995	0.565429	0.399116	0.841855	0.20948	0.164067	1.55787	0.426205	0.424177	0.702282	0.217556	0.885869	0.215163
0.285862	0.384368	0.0378972	1.7463	0.284985	0.357026	0.44834	0.431762	0.565806	0.410461	0.842053	0.215588	0.165533	1.58675	0.426605	0.43601	0.702487	0.22386	0.886073	0.221288
0.286225	0.395103	0.039533	1.76465	0.285095	0.360549	0.448748	0.443504	0.566194	0.421799	0.842257	0.221724	0.167024	1.61429	0.427017	0.447737	0.702699	0.230095	0.886282	0.227385
0.286599	0.405879	0.0411854	1.78214	0.285215	0.364412	0.449167	0.455196	0.566592	0.433048	0.842466	0.227771	0.168541	1.64067	0.42744	0.459473	0.702916	0.236339	0.886497	0.233501
0.286982	0.416592	0.0428538	1.79883	0.285381	0.369642	0.449596	0.466861	0.567	0.444268	0.842681	0.233858	0.170081	1.66586	0.427873	0.471227	0.703139	0.242602	0.886717	0.23958
0.287375	0.427324	0.0445374	1.81476	0.285595	0.376221	0.450037	0.478472	0.56742	0.455502	0.842902	0.239955	0.171645	1.68989	0.428318	0.482869	0.703368	0.24883	0.886943	0.245658
0.287778	0.438022	0.0462354	1.83001	0.285858	0.38423	0.450488	0.49005	0.567849	0.466689	0.843128	0.246069	0.17323	1.71285	0.428773	0.494508	0.703603	0.255059	0.887175	0.251735
0.288191	0.448725	0.0479474	1.84453	0.286174	0.393628	0.45095	0.50156	0.568289	0.477859	0.84336	0.252144	0.174836	1.73481	0.429239	0.506141	0.703843	0.261291	0.887412	0.257811
0.288614	0.459437	0.0496725	1.85841	0.286545	0.404314	0.451423	0.513007	0.56874	0.488992	0.843598	0.258216	0.176463	1.75574	0.429716	0.517687	0.70409	0.26753	0.887655	0.263884
0.289047	0.470095	0.0514103	1.87168	0.286927	0.415077	0.451906	0.524476	0.5692	0.500053	0.843842	0.264281	0.178108	1.77577	0.430204	0.529207	0.704342	0.273783	0.887904	0.26995
0.28949	0.480791	0.0531602	1.88437	0.287319	0.425805	0.4524	0.535841	0.569672	0.511114	0.844091	0.270331	0.179772	1.79494	0.430702	0.540749	0.7046	0.279989	0.888158	0.276004
0.289943	0.491489	0.0549216	1.8965	0.287721	0.436515	0.452904	0.547145	0.570153	0.522177	0.844345	0.276425	0.181453	1.8132	0.431146	0.55077	0.704864	0.286177	0.888418	0.282032
0.290406	0.502117	0.0566941	1.90809	0.288132	0.447254	0.453419	0.558474	0.570645	0.53317	0.844606	0.282461	0.18315	1.83069	0.43153	0.559239	0.705133	0.2924	0.888684	0.288082
0.290879	0.512755	0.0584772	1.91917	0.288554	0.457933	0.453945	0.569707	0.571146	0.544096	0.844872	0.288527	0.184864	1.84745	0.431852	0.566248	0.705409	0.29862	0.888955	0.294104
0.291361	0.52341	0.0602703	1.92976	0.288986	0.468583	0.454412	0.579462	0.571658	0.555036	0.845143	0.294579	0.186593	1.86341	0.432109	0.571735	0.70569	0.304835	0.889232	0.30014
0.291854	0.534027	0.0620731	1.93989	0.289427	0.479291	0.454815	0.587711	0.572181	0.565929	0.845421	0.300605	0.188336	1.87871	0.4323	0.575925	0.705977	0.311038	0.889514	0.306135
0.292357	0.54464	0.0638851	1.94961	0.289879	0.489992	0.455154	0.594534	0.572713	0.576803	0.845704	0.306652	0.190094	1.89336	0.432423	0.578498	0.706269	0.31722	0.889802	0.312118
0.292869	0.555247	0.0657059	1.95893	0.29034	0.500616	0.455424	0.599975	0.573255	0.587636	0.845992	0.312666	0.191864	1.90738	0.432601	0.582147	0.706568	0.323431	0.890096	0.318152
0.293391	0.565841	0.0675353	1.96783	0.290812	0.511238	0.455624	0.603917	0.573808	0.598391	0.846286	0.318687	0.193648	1.92084	0.432795	0.586297	0.706872	0.329628	0.890395	0.324141
0.293923	0.576407	0.0693728	1.97632	0.291293	0.521896	0.455753	0.606421	0.57437	0.609132	0.846586	0.324725	0.195444	1.93369	0.433062	0.591757	0.707182	0.335795	0.8907	0.330112
0.294465	0.586994	0.071218	1.98453	0.291784	0.532534	0.455939	0.609992	0.574943	0.619849	0.846891	0.330721	0.197251	1.946	0.433402	0.598682	0.707498	0.341978	0.89101	0.336123
0.295017	0.597547	0.0730707	1.99236	0.292285	0.543127	0.456143	0.613943	0.575525	0.630517	0.847202	0.336707	0.19907	1.95784	0.43382	0.607062	0.707819	0.348119	0.891326	0.342064
0.295579	0.608107	0.0749305	1.99984	0.292796	0.553734	0.456422	0.619357	0.576118	0.641158	0.847519	0.342746	0.200899	1.96914	0.434316	0.616883	0.708146	0.35432	0.891648	0.348015
0.29615	0.618679	0.0767972	2.00709	0.293317	0.564347	0.456778	0.626029	0.57672	0.651748	0.847841	0.348746	0.202739	1.97999	0.434896	0.628082	0.708479	0.360498	0.891975	0.353983
0.296732	0.629204	0.0786705	2.01398	0.293848	0.574927	0.457215	0.634149	0.577332	0.662307	0.848168	0.354739	0.204589	1.99043	0.435487	0.639248	0.708818	0.366628	0.892307	0.359914
0.297323	0.639706	0.08055	2.02058	0.294388	0.585527	0.457733	0.643647	0.577954	0.672805	0.848502	0.36072	0.206448	2.00045	0.436088	0.650434	0.709163	0.372808	0.892645	0.365843
0.297924	0.650237	0.0824356	2.02697	0.294939	0.596101	0.458338	0.654465	0.578504	0.681946	0.848841	0.366676	0.208316	2.01004	0.436699	0.66152	0.709513	0.378943	0.892989	0.371769
0.298534	0.660753	0.084327	2.03308	0.295499	0.606624	0.458953	0.665257	0.578979	0.689727	0.849185	0.372655	0.210194	2.01926	0.43732	0.672557	0.709869	0.385061	0.893338	0.377688
0.299155	0.671237	0.086224	2.03893	0.296069	0.61716	0.459578	0.675964	0.579376	0.696056	0.849535	0.378608	0.212079	2.02812	0.437952	0.683568	0.71023	0.391217	0.893693	0.383594
0.299785	0.681731	0.0881264	2.04455	0.296649	0.627701	0.460212	0.686627	0.579692	0.701104	0.849891	0.38458	0.213973	2.03662	0.438594	0.69453	0.710598	0.397377	0.894053	0.389472
0.300425	0.692174	0.0900338	2.04994	0.297239	0.638245	0.460857	0.697269	0.579926	0.704829	0.850252	0.39052	0.215874	2.04482	0.439246	0.705504	0.710971	0.403471	0.894418	0.39537
0.301075	0.702657	0.0919462	2.05515	0.297838	0.648753	0.461512	0.707826	0.580076	0.707203	0.850618	0.396466	0.217783	2.05266	0.439909	0.716375	0.711349	0.409581	0.894789	0.401233
0.301735	0.713151	0.0938634	2.06015	0.298448	0.659245	0.462176	0.718305	0.580293	0.710651	0.85099	0.402425	0.219699	2.06024	0.440581	0.727193	0.711734	0.415722	0.895166	0.4071
0.302404	0.723592	0.0957851	2.06495	0.299067	0.669764	0.46285	0.728745	0.58053	0.714373	0.851368	0.408338	0.221622	2.06751	0.441264	0.738023	0.712124	0.42185	0.895548	0.412974
0.303083	0.734073	0.0977112	2.06957	0.299696	0.68026	0.463534	0.739128	0.580854	0.719342	0.851751	0.414232	0.223552	2.07451	0.441956	0.748784	0.71252	0.427956	0.895936	0.41879
0.303683	0.743171	0.0996415	2.07397	0.300334	0.690708	0.464227	0.749447	0.581268	0.725622	0.85214	0.420161	0.225488	2.08127	0.442659	0.759511	0.712922	0.434014	0.896328	0.424636
0.3042	0.750937	0.101576	2.07823	0.300983	0.701206	0.464931	0.759733	0.581773	0.733257	0.852534	0.426085	0.22743	2.08773	0.443372	0.770148	0.713329	0.440124	0.896727	0.430467
0.304631	0.757344	0.103514	2.08236	0.301641	0.711692	0.465643	0.769967	0.582372	0.742176	0.852934	0.432	0.229378	2.094	0.444094	0.780777	0.713742	0.446192	0.897131	0.436271
0.304975	0.762338	0.105456	2.0863	0.302309	0.722098	0.466365	0.780101	0.583068	0.752364	0.853339	0.437898	0.231332	2.10003	0.444827	0.791401	0.714106	0.4515	0.89754	0.442093
0.305229	0.766163	0.107402	2.09007	0.302987	0.732575	0.467097	0.790185	0.583774	0.762511	0.85375	0.443761	0.233291	2.10582	0.445569	0.801914	0.71442	0.456	0.897954	0.447877
0.305393	0.768555	0.109351	2.09374	0.303674	0.74305	0.467838	0.800207	0.584489	0.772639	0.854166	0.449628	0.235256	2.11143	0.446321	0.812407	0.714682	0.459763	0.898374	0.453659
0.305629	0.77196	0.111303	2.09726	0.304371	0.753488	0.468588	0.810199	0.585213	0.782683	0.854588	0.455503	0.237226	2.1168	0.447083	0.822853	0.714891	0.462688	0.8988	0.459436
0.305886	0.775748	0.113259	2.10065	0.305078	0.763907	0.469347	0.820138	0.585947	0.792686	0.855015	0.461394	0.2392	2.12197	0.447854	0.83324	0.715045	0.464857	0.89923	0.465205
0.306238	0.780742	0.115217	2.1039	0.305795	0.774316	0.470116	0.829979	0.586691	0.802631	0.855448	0.467242	0.24118	2.12701	0.448635	0.843597	0.715144	0.46626	0.899667	0.470956
0.306687	0.787104	0.116927	2.10667	0.306521	0.784795	0.470894	0.83977	0.587443	0.812547	0.855886	0.47308	0.243164	2.13184	0.449426	0.853903	0.715287	0.468264	0.900108	0.476672
0.307234	0.794867	0.118386	2.10894	0.307257	0.795234	0.471681	0.849499	0.588205	0.822449	0.856329	0.478896	0.245152	2.13649	0.450226	0.864182	0.715444	0.470417	0.900555	0.482391
0.307883	0.803985	0.119593	2.11077	0.308003	0.805617	0.472477	0.859198	0.588975	0.832271	0.856778	0.484743	0.247145	2.14101	0.451036	0.874376	0.715657	0.473343	0.901007	0.488117
0.308637	0.814436	0.120549	2.11222	0.308758	0.816082	0.473282	0.868808	0.589755	0.842089	0.857232	0.490576	0.249142	2.14536	0.451856	0.884526	0.715929	0.477106	0.901464	0.493856
0.309401	0.824862	0.121252	2.11318	0.309523	0.826515	0.474096	0.878337	0.590545	0.851832	0.857692	0.496383	0.251142	2.14954	0.452685	0.894692	0.716261	0.481528	0.901927	0.499548
0.310174	0.835275	0.121702	2.11376	0.310298	0.836932	0.474919	0.887862	0.591343	0.861464	0.858157	0.50221	0.253147	2.15358	0.453523	0.904755	0.716654	0.486802	0.902395	0.505218
0.310957	0.845719	0.122349	2.11478	0.311083	0.847377	0.47575	0.897313	0.59215	0.871114	0.858628	0.508006	0.255155	2.1575	0.45437	0.914767	0.71711	0.492859	0.902869	0.510847
0.31175	0.856177	0.123053	2.11582	0.311877	0.857799	0.476591	0.906689	0.592966	0.880737	0.859042	0.513031	0.257167	2.16129	0.455227	0.924791	0.717572	0.498853	0.903347	0.516537
0.312553	0.866607	0.124011	2.11706	0.312681	0.868284	0.47744	0.915991	0.593791	0.890272	0.859399	0.517358	0.259183	2.16491	0.456094	0.934709	0.71804	0.50489	0.903831	0.522204
0.313365	0.877058	0.125223	2.11871	0.313495	0.878763	0.478298	0.925256	0.594625	0.899801	0.859696	0.520913	0.261201	2.1684	0.456969	0.944576	0.718513	0.510948	0.90432	0.527826
0.314187	0.887557	0.12669	2.12066	0.314319	0.889203	0.479164	0.934466	0.595468	0.909252	0.859932	0.523683	0.263223	2.17184	0.457854	0.954417	0.718992	0.516943	0.904751	0.532738
0.315019	0.898007	0.128412	2.12286	0.315152	0.89966	0.480039	0.943576	0.596319	0.918629	0.860107	0.525728	0.265248	2.17513	0.458748	0.964207	0.719476	0.522907	0.905121	0.536873
0.315861	0.908505	0.130391	2.12529	0.315995	0.910162	0.480922	0.952635	0.597179	0.928005	0.860219	0.527051	0.267276	2.17827	0.459651	0.973973	0.719966	0.528892	0.905429	0.54029
0.316712	0.919028	0.132373	2.12764	0.316848	0.920686	0.481814	0.961669	0.598048	0.937307	0.860381	0.528956	0.269307	2.18135	0.460563	0.983654	0.720462	0.534887	0.905674	0.543087
0.317573	0.929526	0.134356	2.12992	0.317711	0.931222	0.482714	0.970654	0.598926	0.946536	0.860557	0.531005	0.271341	2.18431	0.461483	0.993291	0.720963	0.540888	0.905855	0.545123
0.318444	0.940085	0.136342	2.13208	0.318583	0.9418	0.483623	0.979541	0.599812	0.955764	0.860798	0.533828	0.273378	2.18715	0.462413	1.00291	0.72147	0.546855	0.905972	0.546283
0.319325	0.950675	0.138329	2.13419	0.319466	0.952362	0.484539	0.988342	0.600707	0.964956	0.861105	0.537393	0.275417	2.18992	0.463352	1.01248	0.721982	0.552841	0.906139	0.548098
0.320215	0.961243	0.140318	2.13623	0.320358	0.962917	0.485464	0.997137	0.60161	0.974057	0.861478	0.541618	0.277458	2.19263	0.4643	1.02195	0.7225	0.5588	0.906322	0.550187
0.321116	0.971874	0.14231	2.1382	0.32126	0.973577	0.486397	1.00586	0.602522	0.983075	0.86192	0.546617	0.279502	2.19519	0.465257	1.03141	0.723023	0.56471	0.906571	0.552877
0.322026	0.982536	0.144303	2.14011	0.322172	0.984218	0.487339	1.0145	0.603442	0.992088	0.862432	0.552365	0.281549	2.19764	0.466222	1.04083	0.723552	0.570667	0.906889	0.556314
0.322947	0.993214	0.146297	2.1419	0.323094	0.994884	0.488288	1.02311	0.604371	1.0011	0.862949	0.558058	0.283597	2.20008	0.467196	1.05019	0.724087	0.576576	0.907275	0.560407
0.323877	1.00394	0.148294	2.14364	0.324026	1.00567	0.489245	1.03166	0.605308	1.01	0.863472	0.563798	0.285648	2.20243	0.468179	1.05952	0.724627	0.582496	0.907732	0.565261
0.324818	1.01472	0.150292	2.14531	0.324968	1.01645	0.49021	1.04015	0.606253	1.01884	0.864	0.569524	0.287701	2.20463	0.46917	1.06876	0.725172	0.58846	0.908261	0.57081
0.325768	1.02553	0.152291	2.14696	0.32592	1.02723	0.491183	1.04853	0.607206	1.0277	0.864533	0.575171	0.289756	2.20679	0.47017	1.07799	0.725723	0.594371	0.908796	0.576331
0.326728	1.03635	0.154293	2.14855	0.326882	1.0381	0.492164	1.05689	0.608168	1.03645	0.865071	0.58085	0.291813	2.2089	0.471179	1.08719	0.72628	0.600256	0.909335	0.581838
0.327699	1.04729	0.156295	2.15008	0.327854	1.04904	0.493153	1.06521	0.609137	1.04514	0.865615	0.586583	0.293872	2.21094	0.472196	1.09629	0.726842	0.606129	0.90988	0.587338
0.32868	1.05826	0.158299	2.1515	0.328837	1.06	0.494149	1.07344	0.610115	1.05381	0.866164	0.592233	0.295933	2.21288	0.473222	1.10535	0.727409	0.611994	0.91043	0.592835
0.329671	1.06927	0.160304	2.15291	0.32983	1.07104	0.495153	1.08162	0.611101	1.06243	0.866719	0.597878	0.297996	2.21476	0.474256	1.11438	0.727982	0.617894	0.910985	0.59833
0.330672	1.08038	0.162311	2.15427	0.330833	1.08213	0.496164	1.08977	0.612095	1.07099	0.867278	0.60352	0.30006	2.21658	0.475298	1.12336	0.728561	0.623773	0.911545	0.603787
0.331684	1.09154	0.164318	2.15557	0.331846	1.09332	0.497184	1.09784	0.613097	1.07948	0.867843	0.609161	0.302126	2.2183	0.476349	1.13232	0.729144	0.629642	0.91211	0.609226
0.332706	1.10279	0.166327	2.15681	0.33287	1.10459	0.49821	1.10583	0.614106	1.08797	0.868414	0.614801	0.304194	2.22	0.477408	1.14123	0.729734	0.635507	0.91268	0.614655
0.333739	1.1141	0.168337	2.15802	0.333904	1.11593	0.499244	1.11378	0.615124	1.09639	0.868989	0.620404	0.306263	2.22166	0.478476	1.15005	0.730329	0.641295	0.913255	0.62008
