Sym0		Asym0		Sym1		Sym2		Sym3		Sym4		Asym1		Asym2		Asym3		Asym4	
426  Points		528  Points		426  Points		406  Points		353  Points		253  Points		457  Points		401  Points		346  Points		216  Points	
Freq (MHz)	Vgr (m/ms)	Freq (MHz)	Vgr (m/ms)	Freq (MHz)	Vgr (m/ms)	Freq (MHz)	Vgr (m/ms)	Freq (MHz)	Vgr (m/ms)	Freq (MHz)	Vgr (m/ms)	Freq (MHz)	Vgr (m/ms)	Freq (MHz)	Vgr (m/ms)	Freq (MHz)	Vgr (m/ms)	Freq (MHz)	Vgr (m/ms)
0.279509	0.0096643	0.000178332	0.199425	0.27951	0.0115783	0.441178	0.00886377	0.559017	0.00887023	0.838525	0.00343541	0.139763	0.0723648	0.419267	0.0169473	0.698772	0.00683505	0.882358	0.0082403
0.279518	0.0151615	0.000364136	0.234267	0.279521	0.0170046	0.441186	0.0150921	0.559026	0.0147878	0.838529	0.00654349	0.13983	0.108033	0.419283	0.0230966	0.698779	0.00996371	0.882366	0.0113621
0.279538	0.0260867	0.000614862	0.303634	0.279542	0.0278638	0.441206	0.0276246	0.559045	0.0266079	0.838538	0.0127183	0.139964	0.179223	0.41931	0.0353921	0.698791	0.0162735	0.882379	0.017578
0.279567	0.0369508	0.000929925	0.37213	0.279573	0.0387422	0.441238	0.0401653	0.559075	0.0383829	0.838552	0.0188424	0.140164	0.249972	0.419349	0.0477517	0.698809	0.0225943	0.882398	0.0237844
0.279606	0.0478392	0.00130829	0.439615	0.279614	0.0496592	0.441281	0.0526491	0.559116	0.0501408	0.838573	0.0250115	0.14043	0.319986	0.419399	0.0600929	0.698833	0.0288638	0.882423	0.0299714
0.279656	0.0587028	0.0017491	0.505956	0.279665	0.0605802	0.441336	0.0651654	0.559169	0.061938	0.838599	0.0311973	0.140761	0.389114	0.419461	0.0723975	0.698863	0.0351773	0.882454	0.0361932
0.279716	0.0695902	0.00225108	0.570964	0.279727	0.0714359	0.441403	0.0776736	0.559232	0.0737403	0.838631	0.0373432	0.141155	0.457205	0.419534	0.0847018	0.698898	0.0415054	0.882491	0.0424112
0.279786	0.0805252	0.00281303	0.634548	0.279798	0.0823074	0.441481	0.0901657	0.559306	0.085553	0.838669	0.0434828	0.141612	0.5241	0.419619	0.0970059	0.69894	0.0477895	0.882533	0.0486215
0.279866	0.0914089	0.00343349	0.696531	0.27988	0.0932105	0.441571	0.102625	0.559391	0.0973131	0.838712	0.049683	0.142132	0.589702	0.419715	0.109309	0.698988	0.0540589	0.882581	0.0548167
0.279956	0.102263	0.00411094	0.756922	0.279972	0.104104	0.441672	0.115094	0.559487	0.109041	0.838761	0.0558576	0.142711	0.653815	0.419822	0.121612	0.699041	0.0603721	0.882635	0.0609814
0.280056	0.113132	0.00484393	0.815596	0.280074	0.114977	0.441785	0.127579	0.559594	0.120852	0.838816	0.0619813	0.14335	0.716344	0.419941	0.133912	0.6991	0.0666996	0.882695	0.0672317
0.280167	0.12403	0.00563071	0.872444	0.280186	0.12581	0.44191	0.140025	0.559713	0.132609	0.838877	0.0681497	0.144046	0.777241	0.420072	0.146133	0.699165	0.0729826	0.882761	0.0734334
0.280288	0.134912	0.00646964	0.927475	0.280309	0.13671	0.442046	0.152466	0.559842	0.144331	0.838943	0.074334	0.144798	0.836341	0.420214	0.158419	0.699236	0.0792498	0.882832	0.0796113
0.280418	0.145763	0.00735896	0.980627	0.280441	0.147596	0.442194	0.164896	0.559981	0.156055	0.839015	0.0804771	0.145605	0.893675	0.420367	0.170685	0.699313	0.0855585	0.882909	0.0858148
0.280559	0.156625	0.00829693	1.03193	0.280584	0.158457	0.442353	0.177306	0.560132	0.167786	0.839093	0.0866109	0.146464	0.949237	0.420532	0.182913	0.699395	0.0918772	0.882992	0.0919961
0.28071	0.16751	0.00928183	1.08135	0.280736	0.169337	0.442524	0.189675	0.560294	0.179527	0.839177	0.0927994	0.147254	0.99612	0.420708	0.195137	0.699484	0.0981426	0.88308	0.0982065
0.280871	0.178367	0.0103119	1.12885	0.280899	0.180185	0.442707	0.202034	0.560467	0.191219	0.839266	0.0989509	0.147957	1.03499	0.420895	0.207353	0.699578	0.104448	0.883175	0.104402
0.281042	0.189242	0.0113853	1.1745	0.281072	0.19104	0.442901	0.214375	0.56065	0.202883	0.839361	0.105102	0.148558	1.06642	0.421094	0.219555	0.699679	0.110759	0.883275	0.110566
0.281224	0.200077	0.0125004	1.21832	0.281255	0.201912	0.443106	0.226679	0.560845	0.214565	0.839462	0.11125	0.149046	1.09061	0.421305	0.231727	0.699785	0.11701	0.883381	0.116743
0.281415	0.210908	0.0136555	1.26035	0.281448	0.212742	0.443323	0.238983	0.56105	0.226212	0.839568	0.117396	0.149412	1.10812	0.421526	0.243913	0.699897	0.123285	0.883492	0.122945
0.281617	0.221803	0.014849	1.3006	0.281652	0.223562	0.443551	0.251285	0.561266	0.237859	0.83968	0.123534	0.149649	1.11935	0.421759	0.256052	0.700014	0.129611	0.88361	0.129123
0.281829	0.232608	0.0160791	1.33912	0.281865	0.234436	0.443791	0.263511	0.561493	0.249509	0.839798	0.129659	0.149994	1.13517	0.422003	0.268174	0.700138	0.13589	0.883733	0.135253
0.28205	0.24345	0.0173443	1.37597	0.282088	0.24527	0.444043	0.275732	0.561731	0.261089	0.839922	0.13583	0.150375	1.15196	0.422259	0.280258	0.700268	0.142149	0.883862	0.141434
0.282282	0.254295	0.018643	1.41121	0.282322	0.256099	0.444305	0.287943	0.56198	0.272678	0.840052	0.141945	0.150901	1.17456	0.422525	0.292342	0.700403	0.148442	0.883997	0.147644
0.282524	0.265071	0.0199739	1.44486	0.282566	0.266917	0.444579	0.30006	0.562239	0.284283	0.840187	0.148097	0.151582	1.20253	0.422803	0.304425	0.700544	0.154729	0.884137	0.153766
0.282776	0.275931	0.0213354	1.47699	0.282819	0.277712	0.444864	0.312209	0.56251	0.295847	0.840327	0.154248	0.152426	1.23544	0.423093	0.316505	0.700691	0.161003	0.884283	0.159929
0.283038	0.286737	0.0227261	1.50771	0.283083	0.288537	0.445161	0.324349	0.562791	0.30733	0.840474	0.160325	0.153444	1.27275	0.423393	0.328508	0.700844	0.167254	0.884435	0.166104
0.28331	0.297509	0.0241448	1.537	0.283357	0.299347	0.445469	0.336397	0.563082	0.318869	0.840626	0.166472	0.154649	1.31397	0.423705	0.340502	0.701003	0.17353	0.884593	0.172228
0.283593	0.30836	0.0255902	1.56496	0.283641	0.310127	0.445788	0.348408	0.563385	0.330376	0.840784	0.172614	0.155892	1.3535	0.424028	0.352479	0.701168	0.179784	0.884756	0.178396
0.283885	0.319149	0.027061	1.59166	0.283935	0.32092	0.446118	0.360419	0.563698	0.341817	0.840948	0.178746	0.157171	1.39129	0.424362	0.364421	0.701338	0.186065	0.884925	0.184507
0.284187	0.329886	0.028556	1.61708	0.284199	0.330364	0.446459	0.372428	0.564022	0.353274	0.841117	0.184858	0.158485	1.42751	0.424707	0.376365	0.701514	0.192328	0.8851	0.190651
0.2845	0.340668	0.0300742	1.64133	0.284431	0.338354	0.446812	0.384362	0.564356	0.36469	0.841292	0.190929	0.159831	1.46213	0.425063	0.388243	0.701696	0.198556	0.88528	0.196786
0.284822	0.351464	0.0316145	1.66449	0.284626	0.344966	0.447175	0.396219	0.564701	0.376094	0.841473	0.197065	0.161209	1.49523	0.42543	0.400132	0.701884	0.20486	0.885467	0.202903
0.285155	0.362218	0.0331758	1.68656	0.284784	0.350143	0.44755	0.408067	0.565057	0.387477	0.84166	0.203186	0.162618	1.5269	0.425809	0.411974	0.702078	0.211095	0.885658	0.209058
0.285497	0.372958	0.0347572	1.70763	0.284901	0.354082	0.447936	0.419897	0.565423	0.398818	0.841852	0.209274	0.164055	1.55713	0.426198	0.423791	0.702278	0.21734	0.885856	0.215143
0.28585	0.383745	0.0363578	1.72773	0.284976	0.356574	0.448333	0.431693	0.5658	0.410147	0.84205	0.215372	0.165519	1.58597	0.426598	0.43556	0.702483	0.223604	0.886059	0.221234
0.286212	0.39448	0.0379766	1.7469	0.285086	0.360026	0.44874	0.443419	0.566188	0.421452	0.842253	0.221488	0.16701	1.61358	0.42701	0.447305	0.702694	0.229834	0.886268	0.227336
0.286585	0.405182	0.0396129	1.76519	0.285206	0.363838	0.449159	0.455079	0.566586	0.43271	0.842462	0.227568	0.168526	1.63995	0.427432	0.459078	0.702911	0.236067	0.886483	0.233462
0.286967	0.415894	0.0412659	1.78264	0.285372	0.369043	0.449588	0.466754	0.566994	0.443947	0.842677	0.233649	0.170066	1.66507	0.427865	0.470758	0.703134	0.242309	0.886703	0.239562
0.28736	0.426623	0.0429347	1.79931	0.285585	0.375717	0.450029	0.478384	0.567413	0.455141	0.842898	0.239732	0.171629	1.68913	0.428309	0.4824	0.703363	0.248567	0.886929	0.245608
0.287762	0.437316	0.0446187	1.81521	0.285848	0.383683	0.45048	0.489927	0.567842	0.466323	0.843124	0.24582	0.173213	1.71211	0.428764	0.494038	0.703597	0.254784	0.887161	0.251694
0.288175	0.448009	0.0463171	1.83038	0.286164	0.393011	0.450942	0.50144	0.568282	0.477482	0.843356	0.251916	0.174819	1.73403	0.42923	0.505668	0.703838	0.260991	0.887398	0.257789
0.288597	0.4587	0.0480294	1.84491	0.286535	0.403776	0.451414	0.512894	0.568732	0.488593	0.843593	0.257955	0.176445	1.75499	0.429706	0.517209	0.704084	0.267254	0.887641	0.263825
0.289029	0.469389	0.0497549	1.85874	0.286916	0.414469	0.451897	0.524302	0.569192	0.499682	0.843836	0.264027	0.178089	1.775	0.430193	0.52872	0.704336	0.273482	0.88789	0.269891
0.289472	0.480074	0.051493	1.87197	0.287307	0.425199	0.452391	0.535693	0.569663	0.510728	0.844085	0.270093	0.179752	1.79411	0.430691	0.540243	0.704593	0.279638	0.888144	0.275945
0.289924	0.490677	0.0532431	1.88466	0.287708	0.43591	0.452895	0.54705	0.570144	0.52176	0.84434	0.276145	0.181432	1.81239	0.431134	0.55024	0.704857	0.285871	0.888404	0.281974
0.290386	0.501337	0.0550048	1.89671	0.288119	0.446576	0.45341	0.558337	0.570635	0.532763	0.8446	0.28217	0.183129	1.82988	0.431518	0.558707	0.705126	0.292111	0.88867	0.288025
0.290858	0.511963	0.0567775	1.90829	0.28854	0.457292	0.453936	0.569559	0.571137	0.543712	0.844865	0.288215	0.184842	1.84664	0.43184	0.565737	0.705401	0.298292	0.888941	0.294048
0.29134	0.522596	0.0585607	1.91935	0.288971	0.46796	0.454402	0.579292	0.571648	0.554621	0.845137	0.294299	0.18657	1.86264	0.432097	0.571224	0.705682	0.304503	0.889218	0.300089
0.291832	0.533241	0.060354	1.92991	0.289412	0.478641	0.454806	0.587522	0.57217	0.565528	0.845414	0.300314	0.188313	1.87789	0.432288	0.575465	0.705968	0.310699	0.8895	0.306092
0.292334	0.543837	0.0621569	1.94003	0.289863	0.489292	0.455144	0.594376	0.572702	0.576355	0.845696	0.306339	0.190069	1.89255	0.43241	0.578046	0.706261	0.316865	0.889788	0.312091
0.292845	0.55441	0.063969	1.94974	0.290324	0.499927	0.455414	0.599762	0.573244	0.587169	0.845985	0.312382	0.191839	1.90658	0.432588	0.581624	0.706559	0.323045	0.890082	0.318083
0.293367	0.565008	0.06579	1.95905	0.290795	0.510555	0.455615	0.603674	0.573796	0.597958	0.846278	0.31839	0.193622	1.92	0.432782	0.585722	0.706863	0.329253	0.890381	0.324062
0.293898	0.575584	0.0676195	1.96791	0.291275	0.521179	0.455743	0.606221	0.574358	0.608696	0.846578	0.3244	0.195417	1.93287	0.433048	0.591158	0.707172	0.335443	0.890685	0.330087
0.294439	0.586116	0.069457	1.97642	0.291766	0.531837	0.45593	0.609885	0.57493	0.619404	0.846883	0.330414	0.197224	1.94519	0.433389	0.598133	0.707488	0.341597	0.890996	0.336059
0.29499	0.596707	0.0713023	1.98457	0.292266	0.54244	0.456133	0.613852	0.575513	0.630055	0.847194	0.336436	0.199042	1.957	0.433806	0.606544	0.707809	0.347753	0.891312	0.341995
0.295551	0.607269	0.073155	1.99238	0.292777	0.553015	0.456412	0.619185	0.576105	0.640662	0.84751	0.342401	0.200871	1.96828	0.434302	0.616315	0.708136	0.353913	0.891633	0.347936
0.296122	0.617773	0.0750149	1.99987	0.293297	0.563576	0.456769	0.62585	0.576706	0.651257	0.847832	0.348398	0.20271	1.97916	0.434881	0.627517	0.708468	0.36008	0.89196	0.353886
0.296702	0.628307	0.0768816	2.00709	0.293827	0.574166	0.457204	0.633943	0.577318	0.661826	0.848159	0.354386	0.204558	1.98962	0.435471	0.638685	0.708807	0.366261	0.892292	0.359852
0.297293	0.638829	0.0787549	2.01398	0.294367	0.584771	0.457723	0.643436	0.57794	0.672345	0.848492	0.360356	0.206417	1.99961	0.436072	0.649798	0.709151	0.372399	0.892631	0.365779
0.297893	0.649324	0.0806344	2.02057	0.294917	0.595311	0.458328	0.654296	0.578489	0.681439	0.848831	0.366364	0.208285	2.00918	0.436682	0.660921	0.709501	0.378522	0.892974	0.371699
0.298503	0.659842	0.08252	2.02695	0.295476	0.605817	0.458942	0.665036	0.578963	0.689219	0.849175	0.372301	0.210161	2.0184	0.437303	0.671976	0.709856	0.384688	0.893323	0.377608
0.299122	0.67033	0.0844114	2.03305	0.296045	0.616381	0.459567	0.675752	0.57936	0.695623	0.849524	0.378243	0.212046	2.02725	0.437934	0.68296	0.710218	0.390795	0.893678	0.383492
0.299752	0.680833	0.0863084	2.03887	0.296625	0.626936	0.460201	0.686421	0.579676	0.700648	0.849879	0.384194	0.213938	2.03578	0.438576	0.693908	0.710584	0.396931	0.894038	0.389401
0.300391	0.691291	0.0882106	2.0445	0.297214	0.63745	0.460846	0.697028	0.579909	0.704339	0.85024	0.390162	0.215839	2.04397	0.439227	0.704839	0.710957	0.403049	0.894403	0.395287
0.30104	0.701734	0.0901181	2.0499	0.297813	0.647944	0.4615	0.707606	0.58006	0.706671	0.850607	0.396093	0.217747	2.05179	0.439889	0.715725	0.711335	0.409134	0.894774	0.401127
0.301698	0.712221	0.0920304	2.05507	0.298421	0.658428	0.462164	0.718058	0.580277	0.710026	0.850978	0.402023	0.219662	2.05937	0.440561	0.726587	0.71172	0.415298	0.895151	0.407019
0.302367	0.722647	0.0939475	2.06007	0.299039	0.668943	0.462838	0.728484	0.580513	0.713732	0.851356	0.40795	0.221585	2.06664	0.441243	0.737365	0.712109	0.421401	0.895533	0.412872
0.303045	0.733098	0.0958691	2.06486	0.299668	0.679401	0.463522	0.738898	0.580838	0.718834	0.851738	0.413871	0.223513	2.07364	0.441935	0.748101	0.712505	0.427453	0.89592	0.418718
0.303644	0.742208	0.0977951	2.06945	0.300305	0.689867	0.464215	0.749231	0.581251	0.725176	0.852127	0.419781	0.225449	2.0804	0.442637	0.758815	0.712906	0.433552	0.896313	0.424551
0.30416	0.749995	0.0997253	2.07389	0.300953	0.700373	0.464918	0.759452	0.581755	0.732741	0.852521	0.425669	0.22739	2.08686	0.443349	0.769483	0.713313	0.43967	0.896711	0.430357
0.304591	0.756346	0.10166	2.07814	0.30161	0.710827	0.46563	0.769652	0.582354	0.741618	0.85292	0.431584	0.229337	2.09312	0.444071	0.780126	0.713725	0.445755	0.897115	0.436182
0.304935	0.761393	0.103598	2.08224	0.302278	0.72129	0.466352	0.779843	0.58305	0.751819	0.853325	0.437483	0.23129	2.09915	0.444803	0.790685	0.714089	0.451018	0.897524	0.441974
0.305189	0.765322	0.10554	2.08621	0.302955	0.731722	0.467083	0.789919	0.583755	0.76201	0.853735	0.443347	0.233249	2.10491	0.445544	0.801201	0.714403	0.455481	0.897938	0.447772
0.305352	0.767651	0.107485	2.08997	0.303641	0.742138	0.467824	0.7999	0.58447	0.772086	0.854151	0.449216	0.235212	2.1105	0.446296	0.811696	0.714665	0.459223	0.898358	0.453582
0.305588	0.770915	0.109434	2.0936	0.304337	0.75262	0.468574	0.809872	0.585194	0.782104	0.854572	0.455095	0.237181	2.11593	0.447057	0.822107	0.714873	0.462253	0.898784	0.459343
0.305845	0.774726	0.111386	2.09712	0.305044	0.763061	0.469333	0.819838	0.585927	0.79213	0.854999	0.46092	0.239155	2.1211	0.447828	0.832513	0.715027	0.464476	0.899214	0.465078
0.306196	0.779774	0.113342	2.10052	0.305759	0.773445	0.470102	0.829655	0.58667	0.802087	0.855431	0.466784	0.241134	2.1261	0.448608	0.842879	0.715126	0.465808	0.89965	0.470835
0.306645	0.786148	0.1153	2.10378	0.306485	0.783874	0.470879	0.839434	0.587421	0.81201	0.855869	0.472653	0.243117	2.13095	0.449398	0.853189	0.715269	0.467741	0.900092	0.476563
0.307191	0.793933	0.11701	2.10651	0.30722	0.794325	0.471666	0.849194	0.588183	0.821878	0.856312	0.478458	0.245105	2.13557	0.450198	0.863435	0.715425	0.469907	0.900538	0.482305
0.30784	0.803018	0.118468	2.1088	0.307965	0.804751	0.472462	0.858835	0.588953	0.831719	0.85676	0.484281	0.247096	2.14008	0.451007	0.873611	0.715639	0.472832	0.90099	0.488005
0.308593	0.813415	0.119676	2.11062	0.30872	0.815164	0.473266	0.868453	0.589732	0.841511	0.857214	0.490142	0.249092	2.14445	0.451826	0.88379	0.71591	0.476574	0.901448	0.49369
0.309355	0.82385	0.120631	2.11202	0.309484	0.825607	0.47408	0.878023	0.590521	0.851204	0.857674	0.495932	0.251092	2.14862	0.452654	0.893933	0.716242	0.481037	0.90191	0.499422
0.310128	0.834267	0.121334	2.1131	0.310258	0.836029	0.474902	0.887495	0.591319	0.860884	0.858138	0.501725	0.253096	2.15268	0.453492	0.903985	0.716634	0.486301	0.902378	0.5051
0.31091	0.844713	0.121784	2.11376	0.311042	0.84644	0.475734	0.896918	0.592125	0.870522	0.858609	0.507524	0.255104	2.15658	0.454338	0.913991	0.71709	0.492312	0.902852	0.510742
0.311702	0.855173	0.122431	2.11458	0.311835	0.856883	0.476574	0.906281	0.592941	0.880138	0.859023	0.512559	0.257115	2.16032	0.455195	0.924011	0.717552	0.498357	0.90333	0.516386
0.312503	0.865566	0.123135	2.11554	0.312638	0.867341	0.477422	0.915577	0.593765	0.889707	0.859379	0.516885	0.259129	2.16399	0.45606	0.933929	0.718019	0.504383	0.903814	0.522035
0.313315	0.876036	0.124093	2.11694	0.313451	0.877806	0.47828	0.924839	0.594599	0.899179	0.859676	0.520373	0.261147	2.1675	0.456935	0.943795	0.718492	0.510362	0.904303	0.527693
0.314136	0.886545	0.125305	2.11856	0.314274	0.888276	0.479146	0.934048	0.595441	0.908602	0.859912	0.523248	0.263168	2.17091	0.457819	0.953635	0.71897	0.516391	0.904733	0.53261
0.314967	0.896999	0.126772	2.12053	0.315107	0.898748	0.48002	0.943156	0.596292	0.918038	0.860086	0.525347	0.265192	2.17415	0.458712	0.963389	0.719454	0.522372	0.905103	0.536734
0.315807	0.907463	0.128495	2.12272	0.315949	0.90922	0.480903	0.952215	0.597151	0.92737	0.860198	0.526599	0.267219	2.17731	0.459614	0.973137	0.719943	0.528365	0.905411	0.540156
0.316658	0.917968	0.130473	2.12514	0.316801	0.91973	0.481795	0.961249	0.59802	0.936651	0.86036	0.528434	0.269249	2.18043	0.460525	0.982844	0.720438	0.534365	0.905656	0.54293
0.317518	0.928495	0.132455	2.12749	0.317663	0.930258	0.482694	0.970197	0.598897	0.945942	0.860536	0.530494	0.271282	2.18338	0.461445	0.992496	0.720939	0.540331	0.905837	0.544851
0.318388	0.939031	0.134438	2.12976	0.318534	0.940796	0.483602	0.979065	0.599782	0.955165	0.860777	0.533317	0.273318	2.18621	0.462375	1.00208	0.721445	0.54628	0.905954	0.546186
0.319268	0.94961	0.136423	2.13196	0.319416	0.951375	0.484519	0.987894	0.600677	0.964317	0.861083	0.536861	0.275356	2.18898	0.463313	1.0116	0.721957	0.552258	0.906121	0.548111
0.320157	0.960209	0.13841	2.13404	0.320307	0.961974	0.485443	0.996667	0.601579	0.973398	0.861456	0.541127	0.277397	2.19165	0.46426	1.02112	0.722474	0.558213	0.906304	0.550002
0.321057	0.970818	0.1404	2.13608	0.321208	0.972584	0.486376	1.00537	0.60249	0.982443	0.861897	0.546116	0.27944	2.19423	0.465215	1.0306	0.722997	0.56412	0.906553	0.552697
0.321966	0.981433	0.142391	2.13801	0.322119	0.983236	0.487317	1.01401	0.60341	0.99147	0.862409	0.551855	0.281486	2.19672	0.46618	1.04	0.723525	0.570077	0.906871	0.556116
0.322886	0.992124	0.144384	2.13993	0.32304	0.993945	0.488265	1.02258	0.604338	1.00045	0.862926	0.557581	0.283533	2.19911	0.467153	1.04934	0.724059	0.576021	0.907257	0.560252
0.323815	1.00289	0.146378	2.14173	0.323971	1.00465	0.489222	1.03115	0.605274	1.00934	0.863448	0.563264	0.285583	2.20143	0.468135	1.05867	0.724599	0.581923	0.907714	0.565097
0.324754	1.01362	0.148374	2.14347	0.324912	1.01542	0.490187	1.03961	0.606219	1.01821	0.863975	0.568961	0.287635	2.2037	0.469126	1.06791	0.725144	0.587841	0.908243	0.570638
0.325704	1.0244	0.150372	2.14518	0.325864	1.02626	0.491159	1.04801	0.607171	1.02704	0.864508	0.574667	0.28969	2.20582	0.470125	1.0771	0.725694	0.593729	0.908777	0.576192
0.326663	1.03525	0.152372	2.14681	0.326825	1.03706	0.49214	1.05639	0.608132	1.03578	0.865046	0.580339	0.291746	2.2079	0.471133	1.08632	0.72625	0.599639	0.909317	0.581679
0.327633	1.04617	0.154373	2.14839	0.327796	1.04799	0.493128	1.06464	0.609102	1.04447	0.86559	0.586032	0.293804	2.20997	0.47215	1.09543	0.726812	0.605524	0.909861	0.587169
0.328613	1.05716	0.156375	2.14988	0.328778	1.05899	0.494124	1.07287	0.610079	1.05313	0.866138	0.591698	0.295864	2.21192	0.473174	1.10449	0.727378	0.611397	0.910411	0.59266
0.329603	1.06815	0.158379	2.15132	0.329769	1.07002	0.495127	1.08105	0.611064	1.06175	0.866692	0.597314	0.297926	2.21377	0.474208	1.11352	0.727951	0.617299	0.910965	0.598116
0.330603	1.07924	0.160384	2.15273	0.330771	1.0811	0.496138	1.08917	0.612057	1.07031	0.867251	0.602979	0.299989	2.21558	0.475249	1.12247	0.728529	0.623143	0.911525	0.603591
0.331614	1.09043	0.16239	2.1541	0.331784	1.09228	0.497156	1.09725	0.613058	1.07884	0.867816	0.608631	0.302054	2.21732	0.476299	1.13145	0.729112	0.628995	0.91209	0.609074
0.332635	1.10163	0.164398	2.15541	0.332807	1.10354	0.498183	1.10525	0.614067	1.08727	0.868385	0.61424	0.304121	2.21904	0.477358	1.14033	0.729701	0.634851	0.91266	0.61449
0.333667	1.11294	0.166406	2.15665	0.33384	1.11485	0.499216	1.11317	0.615084	1.09567	0.86896	0.619865	0.306189	2.22067	0.478424	1.14913	0.730295	0.640671	0.913235	0.619871
