Sym0		Asym0		Sym1		Sym2		Sym3		Sym4		Asym1		Asym2		Asym3		Asym4	
426  Points		528  Points		426  Points		406  Points		353  Points		254  Points		457  Points		401  Points		346  Points		216  Points	
Freq (MHz)	Vgr (m/ms)	Freq (MHz)	Vgr (m/ms)	Freq (MHz)	Vgr (m/ms)	Freq (MHz)	Vgr (m/ms)	Freq (MHz)	Vgr (m/ms)	Freq (MHz)	Vgr (m/ms)	Freq (MHz)	Vgr (m/ms)	Freq (MHz)	Vgr (m/ms)	Freq (MHz)	Vgr (m/ms)	Freq (MHz)	Vgr (m/ms)
0.279509	0.00951223	0.000194453	0.206571	0.27951	0.0115412	0.441167	0.00886437	0.559017	0.00881319	0.838526	0.00336552	0.139763	0.0734161	0.419267	0.0168533	0.698772	0.00673587	0.882335	0.00817949
0.279518	0.0149799	0.000386914	0.241332	0.279521	0.0169407	0.441175	0.0151109	0.559026	0.0147295	0.838529	0.00647823	0.139832	0.109054	0.419283	0.0230368	0.698779	0.00992035	0.882342	0.0113485
0.279537	0.0258165	0.000644148	0.310532	0.279542	0.0277926	0.441195	0.027625	0.559045	0.0265459	0.838538	0.012667	0.139967	0.180153	0.41931	0.0353617	0.698791	0.0162511	0.882356	0.0175597
0.279566	0.0366498	0.000965556	0.378912	0.279573	0.0386564	0.441226	0.0401288	0.559075	0.0383133	0.838552	0.0188188	0.140168	0.250793	0.419349	0.0476337	0.698809	0.0225406	0.882375	0.0237565
0.279605	0.0475499	0.00135021	0.446239	0.279614	0.0494711	0.441269	0.052612	0.559116	0.0500562	0.838573	0.0249702	0.140434	0.320734	0.419399	0.0599461	0.698833	0.0288206	0.8824	0.0299978
0.279655	0.0583636	0.00179707	0.512411	0.279665	0.0603338	0.441324	0.0651271	0.559168	0.0618233	0.838599	0.0311207	0.140765	0.389793	0.41946	0.0722662	0.698863	0.0350819	0.882431	0.0361815
0.279714	0.0692245	0.00230503	0.577226	0.279726	0.0712195	0.441391	0.0776329	0.559231	0.0736387	0.838631	0.0372693	0.14116	0.457816	0.419533	0.0845285	0.698898	0.041379	0.882468	0.0423965
0.279784	0.0801066	0.00287267	0.640572	0.279797	0.0820776	0.441469	0.0901202	0.559305	0.0854043	0.838668	0.0434141	0.141618	0.52465	0.419618	0.0968216	0.69894	0.0476743	0.88251	0.0486011
0.279863	0.0909575	0.00349867	0.702372	0.279879	0.0929541	0.441559	0.102644	0.559391	0.0971434	0.838712	0.0495514	0.142138	0.590129	0.419714	0.109103	0.698987	0.053966	0.882558	0.0547845
0.279953	0.10182	0.00418146	0.762543	0.279971	0.103794	0.44166	0.115093	0.559487	0.108903	0.838761	0.0557468	0.142718	0.654143	0.419821	0.121362	0.69904	0.0602506	0.882612	0.0609992
0.280053	0.112631	0.00491958	0.820997	0.280072	0.114634	0.441773	0.12754	0.559593	0.12063	0.838815	0.0619122	0.143357	0.716619	0.41994	0.133647	0.699099	0.066521	0.882672	0.0672028
0.280163	0.123486	0.0057113	0.877625	0.280184	0.125473	0.441898	0.139982	0.559711	0.132366	0.838876	0.0680173	0.144053	0.777411	0.42007	0.145913	0.699164	0.0728361	0.882737	0.0733844
0.280283	0.134357	0.00655494	0.932434	0.280306	0.136313	0.442034	0.152417	0.55984	0.144118	0.838942	0.0741484	0.144805	0.836446	0.420212	0.158141	0.699235	0.0790944	0.882808	0.0795954
0.280413	0.145186	0.00744879	0.985364	0.280438	0.147153	0.442182	0.164835	0.55998	0.15583	0.839014	0.0803316	0.145612	0.893726	0.420365	0.170366	0.699312	0.0853854	0.882886	0.0857918
0.280554	0.156004	0.00839106	1.03644	0.28058	0.157992	0.442341	0.177219	0.56013	0.167536	0.839092	0.0864723	0.146471	0.949179	0.420529	0.182583	0.699394	0.0916685	0.882968	0.091959
0.280704	0.166873	0.00938008	1.08563	0.280733	0.16883	0.442512	0.189609	0.560292	0.17923	0.839175	0.0926015	0.147261	0.996004	0.420705	0.194786	0.699482	0.0979359	0.883057	0.0981411
0.280865	0.177698	0.010414	1.13289	0.280895	0.179667	0.442695	0.201939	0.560464	0.190898	0.839264	0.0987806	0.147964	1.03483	0.420892	0.206961	0.699577	0.104245	0.883151	0.104353
0.281035	0.188509	0.0114911	1.17835	0.281067	0.190502	0.442888	0.214295	0.560648	0.202589	0.839359	0.104913	0.148565	1.06619	0.421091	0.219152	0.699677	0.110492	0.883251	0.110551
0.281216	0.199364	0.0126097	1.22202	0.28125	0.20133	0.443094	0.226627	0.560842	0.214253	0.83946	0.111026	0.149053	1.09038	0.421301	0.231302	0.699782	0.116759	0.883357	0.116721
0.281407	0.210161	0.0137682	1.2638	0.281443	0.212148	0.443311	0.238915	0.561047	0.225861	0.839566	0.117173	0.149419	1.10785	0.421522	0.243446	0.699894	0.123067	0.883469	0.12291
0.281608	0.220987	0.0149647	1.30385	0.281645	0.222944	0.443539	0.251185	0.561263	0.237505	0.839678	0.123315	0.149656	1.11898	0.421754	0.255574	0.700012	0.129313	0.883586	0.129061
0.281819	0.231801	0.0161978	1.3422	0.281858	0.233768	0.443779	0.26342	0.56149	0.249148	0.839796	0.129446	0.150001	1.13485	0.421998	0.267672	0.700135	0.135578	0.883709	0.135211
0.28204	0.242589	0.0174657	1.37885	0.282081	0.244577	0.44403	0.27566	0.561727	0.260715	0.839919	0.135556	0.150381	1.15172	0.422253	0.279784	0.700264	0.141883	0.883838	0.141432
0.282271	0.253397	0.0187671	1.41392	0.282314	0.255356	0.444292	0.287834	0.561975	0.272277	0.840049	0.141696	0.150908	1.17421	0.422519	0.291849	0.7004	0.148122	0.883973	0.147574
0.282512	0.264175	0.0201004	1.44742	0.282557	0.266147	0.444566	0.299951	0.562234	0.283829	0.840183	0.147825	0.151588	1.20216	0.422797	0.303895	0.70054	0.154373	0.884113	0.153708
0.282763	0.274963	0.0214642	1.47943	0.28281	0.276962	0.444851	0.3121	0.562504	0.295359	0.840324	0.153929	0.152431	1.23502	0.423086	0.315901	0.700687	0.160649	0.884259	0.159895
0.283024	0.285774	0.0228571	1.50996	0.283073	0.287751	0.445148	0.324239	0.562785	0.306922	0.84047	0.160059	0.15345	1.27226	0.423386	0.327902	0.70084	0.166903	0.884411	0.166045
0.283295	0.296555	0.0242779	1.5391	0.283346	0.298491	0.445456	0.336287	0.563076	0.318401	0.840622	0.166167	0.154654	1.31343	0.423697	0.339893	0.700998	0.173184	0.884569	0.172192
0.283577	0.30735	0.0257251	1.56691	0.283629	0.309277	0.445774	0.348298	0.563378	0.329861	0.84078	0.172303	0.155897	1.35291	0.424019	0.351861	0.701162	0.179449	0.884732	0.178334
0.283868	0.318101	0.0271976	1.59346	0.283922	0.320083	0.446105	0.360307	0.563691	0.341355	0.840943	0.178424	0.157175	1.39067	0.424352	0.363787	0.701333	0.185679	0.884901	0.184465
0.284169	0.328837	0.0286943	1.61879	0.284186	0.329422	0.446446	0.372241	0.564014	0.35277	0.841112	0.184512	0.158488	1.4268	0.424697	0.3757	0.701508	0.191915	0.885076	0.190575
0.284481	0.339614	0.0302141	1.64294	0.284417	0.337388	0.446798	0.384171	0.564348	0.364175	0.841287	0.19061	0.159834	1.46138	0.425052	0.387587	0.70169	0.198159	0.885256	0.196716
0.284802	0.350328	0.0317558	1.66596	0.284612	0.343997	0.447162	0.396092	0.564693	0.375559	0.841468	0.196727	0.161211	1.49449	0.425419	0.399423	0.701878	0.204424	0.885442	0.202846
0.285134	0.361064	0.0333184	1.68792	0.284769	0.34931	0.447536	0.407923	0.565048	0.386901	0.841654	0.202808	0.162619	1.5261	0.425797	0.411231	0.702071	0.210653	0.885634	0.208952
0.285475	0.371842	0.034901	1.70891	0.284885	0.352966	0.447922	0.419718	0.565414	0.398233	0.841846	0.208891	0.164055	1.55626	0.426185	0.423053	0.70227	0.216886	0.885832	0.215087
0.285827	0.382558	0.0365028	1.72892	0.284961	0.355372	0.448318	0.431517	0.56579	0.409545	0.842043	0.214978	0.165519	1.5851	0.426585	0.434833	0.702475	0.223128	0.886035	0.221203
0.286188	0.393223	0.0381227	1.74798	0.28507	0.359084	0.448726	0.443249	0.566177	0.420815	0.842246	0.221073	0.167009	1.61268	0.426996	0.446527	0.702686	0.229384	0.886244	0.227284
0.286559	0.403934	0.03976	1.76619	0.28519	0.362947	0.449144	0.454922	0.566574	0.432076	0.842455	0.227184	0.168524	1.63899	0.427417	0.45827	0.702903	0.235599	0.886458	0.233366
0.286941	0.414662	0.0414138	1.78357	0.285356	0.368125	0.449574	0.466549	0.566982	0.443319	0.842669	0.233254	0.170063	1.66408	0.42785	0.469965	0.703125	0.241803	0.886679	0.239452
0.287332	0.425351	0.0430834	1.80015	0.285568	0.374648	0.450014	0.478157	0.5674	0.454526	0.84289	0.239314	0.171625	1.68809	0.428293	0.481561	0.703353	0.248058	0.886905	0.245544
0.287733	0.436036	0.0447682	1.81596	0.28583	0.382639	0.450465	0.489728	0.567829	0.46566	0.843115	0.245355	0.173209	1.71108	0.428747	0.493182	0.703587	0.254269	0.887136	0.251649
0.288144	0.446714	0.0464673	1.8311	0.286145	0.392016	0.450926	0.501225	0.568268	0.476795	0.843347	0.25143	0.174813	1.73298	0.429212	0.504779	0.703827	0.260465	0.887374	0.257706
0.288566	0.457375	0.0481802	1.84557	0.286515	0.402691	0.451399	0.512646	0.568717	0.487933	0.843584	0.257503	0.176438	1.75388	0.429687	0.516326	0.704073	0.266706	0.887616	0.263742
0.288997	0.468004	0.0499063	1.85933	0.286895	0.413376	0.451881	0.524063	0.569177	0.499002	0.843827	0.263569	0.178081	1.77386	0.430174	0.527848	0.704324	0.272889	0.887865	0.269808
0.289438	0.478642	0.0516449	1.87251	0.287285	0.424101	0.452375	0.53547	0.569647	0.510007	0.844075	0.269622	0.179743	1.79297	0.430671	0.539321	0.704581	0.279103	0.888119	0.27586
0.289889	0.489298	0.0533955	1.8851	0.287685	0.434774	0.452879	0.546786	0.570128	0.521032	0.844329	0.275649	0.181422	1.81127	0.431113	0.549294	0.704844	0.285304	0.888379	0.281886
0.290349	0.499916	0.0551576	1.89717	0.288095	0.44542	0.453394	0.558065	0.570618	0.532022	0.844589	0.281698	0.183118	1.82874	0.431496	0.557721	0.705113	0.291482	0.888644	0.287932
0.29082	0.510533	0.0569307	1.9087	0.288515	0.456127	0.453919	0.56927	0.571119	0.542941	0.844854	0.287716	0.18483	1.84542	0.431817	0.564773	0.705387	0.297685	0.888916	0.293945
0.291301	0.521146	0.0587142	1.91968	0.288945	0.46679	0.454385	0.578978	0.57163	0.553868	0.845125	0.293745	0.186557	1.86138	0.432074	0.570261	0.705667	0.303866	0.889192	0.299964
0.291791	0.531753	0.0605078	1.93022	0.289385	0.477395	0.454789	0.5873	0.572151	0.564735	0.845401	0.299799	0.188298	1.87668	0.432265	0.574297	0.705953	0.310074	0.889475	0.305997
0.292292	0.542346	0.062311	1.94031	0.289835	0.488045	0.455127	0.594105	0.572682	0.575557	0.845683	0.305826	0.190054	1.89129	0.432387	0.577015	0.706245	0.316266	0.889762	0.311983
0.292802	0.552912	0.0641234	1.94995	0.290295	0.498679	0.455397	0.599409	0.573223	0.586359	0.845971	0.311802	0.191823	1.90529	0.432564	0.580699	0.706543	0.322424	0.890056	0.31795
0.293322	0.563497	0.0659445	1.95919	0.290764	0.50927	0.455597	0.603486	0.573775	0.597125	0.846264	0.317822	0.193604	1.91874	0.432758	0.584637	0.706846	0.328587	0.890355	0.323951
0.293852	0.574047	0.0677741	1.96807	0.291244	0.519912	0.455726	0.605958	0.574336	0.60789	0.846563	0.323855	0.195398	1.93155	0.433024	0.590208	0.707155	0.334762	0.890659	0.329948
0.294392	0.5846	0.0696118	1.97654	0.291733	0.530507	0.455912	0.60946	0.574908	0.618579	0.846868	0.329842	0.197203	1.94384	0.433364	0.597136	0.70747	0.340886	0.89097	0.335935
0.294941	0.595159	0.0714571	1.98468	0.292232	0.541077	0.456115	0.613481	0.575489	0.629191	0.847178	0.33581	0.19902	1.95567	0.43378	0.60548	0.70779	0.347054	0.891285	0.341904
0.295501	0.605657	0.07331	1.99247	0.292741	0.551673	0.456394	0.618839	0.57608	0.639795	0.847494	0.341814	0.200848	1.96696	0.434276	0.615268	0.708117	0.353238	0.891607	0.347837
0.29607	0.61618	0.0751699	1.99991	0.29326	0.562244	0.45675	0.625564	0.576681	0.650384	0.847815	0.347816	0.202685	1.97781	0.434854	0.626488	0.708448	0.359381	0.891934	0.353768
0.296649	0.626679	0.0770366	2.00711	0.293789	0.572803	0.457186	0.633624	0.577292	0.66094	0.848142	0.353741	0.204533	1.98822	0.435443	0.637627	0.708786	0.365513	0.892266	0.359699
0.297238	0.637202	0.0789099	2.01397	0.294328	0.583356	0.457704	0.643109	0.577913	0.671434	0.848474	0.359731	0.20639	1.99818	0.436042	0.648727	0.70913	0.371626	0.892604	0.365627
0.297836	0.647703	0.0807894	2.02057	0.294876	0.593906	0.458309	0.653925	0.578461	0.680556	0.848812	0.365706	0.208256	2.00778	0.436652	0.659807	0.709479	0.377773	0.892947	0.371552
0.298444	0.658157	0.082675	2.0269	0.295434	0.604417	0.458923	0.664679	0.578935	0.688268	0.849156	0.371649	0.210131	2.017	0.437272	0.67084	0.709834	0.383915	0.893296	0.377468
0.299063	0.668664	0.0845663	2.03297	0.296002	0.614947	0.459547	0.675367	0.579331	0.694637	0.849505	0.377604	0.212015	2.02583	0.437902	0.681813	0.710194	0.390047	0.893651	0.383369
0.29969	0.679133	0.0864632	2.03879	0.29658	0.625485	0.460181	0.68602	0.579646	0.699712	0.849859	0.383507	0.213906	2.03435	0.438542	0.692792	0.71056	0.396157	0.894011	0.389237
0.300328	0.689596	0.0883654	2.04437	0.297168	0.635954	0.460826	0.696621	0.57988	0.703527	0.850219	0.389454	0.215806	2.04252	0.439193	0.703702	0.710932	0.402225	0.894376	0.395113
0.300975	0.700048	0.0902727	2.04981	0.297765	0.646462	0.461479	0.707158	0.58003	0.705847	0.850585	0.395415	0.217712	2.05034	0.439853	0.71454	0.71131	0.408355	0.894747	0.401007
0.301632	0.710479	0.092185	2.05498	0.298372	0.656953	0.462143	0.717626	0.580246	0.709182	0.850956	0.401331	0.219626	2.05788	0.440524	0.725379	0.711693	0.414464	0.895123	0.406863
0.302299	0.72094	0.0941019	2.0599	0.298989	0.667399	0.462817	0.728061	0.580483	0.712917	0.851333	0.407231	0.221547	2.06517	0.441205	0.736145	0.712082	0.420529	0.895505	0.412714
0.302976	0.73139	0.0960234	2.06469	0.299616	0.677895	0.4635	0.738442	0.580807	0.717834	0.851715	0.413171	0.223475	2.07218	0.441896	0.746875	0.712477	0.426653	0.895892	0.418557
0.303573	0.740436	0.0979493	2.06929	0.300252	0.68838	0.464193	0.748723	0.581219	0.724148	0.852103	0.419046	0.225408	2.07887	0.442597	0.757587	0.712877	0.432748	0.896285	0.424384
0.304089	0.748173	0.0998793	2.07371	0.300899	0.698822	0.464895	0.758953	0.581723	0.731803	0.852496	0.424937	0.227348	2.08536	0.443308	0.768253	0.713283	0.438786	0.896683	0.430179
0.304519	0.754622	0.101813	2.07796	0.301555	0.709244	0.465607	0.769159	0.582321	0.740699	0.852894	0.430859	0.229294	2.09161	0.444028	0.778859	0.713695	0.444856	0.897087	0.435983
0.304861	0.759752	0.103751	2.08205	0.30222	0.719692	0.466328	0.779316	0.583016	0.750835	0.853299	0.436698	0.231246	2.0976	0.444759	0.789399	0.714058	0.450158	0.897495	0.441803
0.305115	0.763394	0.105693	2.08598	0.302896	0.730152	0.467059	0.789374	0.58372	0.760957	0.853708	0.442588	0.233203	2.10337	0.445499	0.799906	0.714371	0.45461	0.89791	0.447586
0.305277	0.765717	0.107638	2.08975	0.303581	0.740583	0.467799	0.799384	0.584434	0.771072	0.854123	0.448436	0.235165	2.10897	0.446249	0.810396	0.714632	0.458357	0.898329	0.453364
0.305512	0.769142	0.109587	2.09341	0.304276	0.750998	0.468549	0.809333	0.585157	0.781146	0.854544	0.454274	0.237133	2.11437	0.447009	0.820841	0.714841	0.461363	0.898755	0.459135
0.305769	0.7729	0.111539	2.09691	0.30498	0.761443	0.469307	0.819214	0.585889	0.791127	0.85497	0.460162	0.239105	2.11952	0.447779	0.831191	0.714994	0.463472	0.899185	0.464891
0.30612	0.778027	0.113494	2.10026	0.305695	0.771865	0.470075	0.829063	0.586631	0.801061	0.855401	0.466006	0.241082	2.12455	0.448558	0.841529	0.715093	0.464795	0.899621	0.470615
0.306567	0.784408	0.115453	2.10351	0.306419	0.78224	0.470852	0.838857	0.587382	0.810972	0.855838	0.471836	0.243064	2.12937	0.449347	0.851825	0.715236	0.466799	0.900062	0.476352
0.307113	0.792104	0.117162	2.10627	0.307152	0.792664	0.471638	0.848552	0.588142	0.820835	0.85628	0.477635	0.24505	2.13398	0.450146	0.862064	0.715392	0.469016	0.900508	0.482113
0.307759	0.80116	0.11862	2.10854	0.307896	0.803113	0.472433	0.858197	0.588912	0.830637	0.856728	0.483447	0.24704	2.13848	0.450953	0.872273	0.715605	0.471914	0.90096	0.487776
0.308511	0.811618	0.119828	2.11035	0.308649	0.813501	0.473237	0.867816	0.58969	0.840409	0.857181	0.489284	0.249035	2.14286	0.451771	0.882395	0.715876	0.475639	0.901417	0.493461
0.309272	0.822047	0.120783	2.1118	0.309411	0.823895	0.47405	0.87735	0.590478	0.850165	0.85764	0.495101	0.251033	2.14702	0.452598	0.89251	0.716206	0.480138	0.90188	0.499193
0.310042	0.832461	0.121486	2.11283	0.310184	0.834366	0.474872	0.886805	0.591274	0.859841	0.858104	0.500874	0.253036	2.15104	0.453434	0.902584	0.716598	0.485354	0.902348	0.504869
0.310823	0.842869	0.121936	2.11339	0.310966	0.844765	0.475703	0.896219	0.59208	0.869439	0.858573	0.506634	0.255042	2.15496	0.45428	0.912602	0.717053	0.49138	0.902821	0.510509
0.311613	0.853273	0.122583	2.11436	0.311758	0.855201	0.476542	0.905614	0.592894	0.879036	0.858987	0.511728	0.257051	2.15868	0.455135	0.922555	0.717514	0.497396	0.903299	0.51615
0.312413	0.863712	0.123287	2.11544	0.31256	0.865656	0.47739	0.914889	0.593718	0.888595	0.859342	0.515999	0.259064	2.16233	0.455999	0.932475	0.71798	0.503407	0.903782	0.521791
0.313222	0.874168	0.124244	2.11665	0.313371	0.876084	0.478247	0.924105	0.59455	0.898062	0.859639	0.519537	0.26108	2.16588	0.456872	0.942342	0.718452	0.509379	0.904271	0.527435
0.314042	0.884633	0.125456	2.11826	0.314192	0.886534	0.479112	0.93329	0.595391	0.907483	0.859874	0.522282	0.2631	2.16922	0.457755	0.952146	0.718929	0.515404	0.904701	0.532321
0.314871	0.895102	0.126923	2.12024	0.315023	0.896996	0.479986	0.942387	0.596241	0.916918	0.860048	0.524263	0.265122	2.17251	0.458646	0.961956	0.719412	0.521383	0.905071	0.536489
0.31571	0.905574	0.128645	2.12242	0.315864	0.907501	0.480868	0.95144	0.5971	0.926249	0.86016	0.525678	0.267148	2.17569	0.459547	0.971658	0.719901	0.527376	0.905379	0.539934
0.316558	0.916083	0.130624	2.12485	0.316714	0.91799	0.481759	0.960397	0.597967	0.935529	0.860322	0.527603	0.269177	2.17871	0.460457	0.981343	0.720395	0.533338	0.905624	0.542708
0.317417	0.926574	0.132605	2.12719	0.317574	0.928508	0.482658	0.969344	0.598843	0.94482	0.860497	0.529558	0.271208	2.18165	0.461376	0.990983	0.720895	0.539286	0.905805	0.544579
0.318285	0.93713	0.134588	2.12946	0.318444	0.93904	0.483565	0.978248	0.599728	0.95397	0.860738	0.532437	0.273242	2.18451	0.462304	1.00056	0.7214	0.545263	0.905921	0.545814
0.319163	0.947681	0.136573	2.13166	0.319324	0.94958	0.484481	0.987022	0.600621	0.963123	0.861043	0.535992	0.275278	2.18729	0.46324	1.01011	0.721911	0.551217	0.906089	0.547789
0.320051	0.95823	0.13856	2.13375	0.320214	0.96016	0.485405	0.995766	0.601522	0.97224	0.861416	0.540197	0.277318	2.18997	0.464186	1.01961	0.722427	0.557161	0.906271	0.549762
0.320949	0.968852	0.140549	2.13578	0.321113	0.970797	0.486336	1.0045	0.602432	0.981303	0.861856	0.545195	0.279359	2.19251	0.46514	1.02905	0.722949	0.563062	0.906521	0.552402
0.321856	0.979509	0.14254	2.13771	0.322023	0.981425	0.487276	1.01311	0.603351	0.990302	0.862367	0.550903	0.281403	2.19499	0.466103	1.03842	0.723476	0.56898	0.906838	0.555851
0.322774	0.990184	0.144532	2.1396	0.322942	0.992122	0.488224	1.02166	0.604278	0.999233	0.862883	0.556613	0.283449	2.19741	0.467075	1.04779	0.724009	0.574941	0.907224	0.560006
0.323701	1.00087	0.146526	2.14145	0.323871	1.00285	0.48918	1.03019	0.605213	1.00817	0.863404	0.562324	0.285498	2.19967	0.468056	1.05709	0.724548	0.580851	0.907681	0.564828
0.324639	1.01159	0.148523	2.14319	0.324811	1.01357	0.490144	1.03866	0.606156	1.01703	0.863931	0.568	0.287548	2.20191	0.469045	1.06636	0.725092	0.586736	0.908209	0.570317
0.325586	1.02241	0.15052	2.14486	0.32576	1.02438	0.491116	1.04704	0.607108	1.02582	0.864463	0.573694	0.289601	2.20412	0.470043	1.07557	0.725641	0.592645	0.908743	0.575881
0.326544	1.03328	0.152519	2.1465	0.32672	1.03524	0.492095	1.05537	0.608068	1.03457	0.865	0.579398	0.291655	2.20618	0.471049	1.08471	0.726196	0.598529	0.909282	0.581373
0.327512	1.04413	0.15452	2.14805	0.327689	1.04613	0.493082	1.06367	0.609036	1.04327	0.865542	0.585033	0.293712	2.20816	0.472064	1.09383	0.726756	0.604401	0.909827	0.586866
0.32849	1.05505	0.156522	2.14956	0.328669	1.05707	0.494077	1.07184	0.610012	1.0519	0.86609	0.59067	0.29577	2.21014	0.473087	1.10289	0.727322	0.610266	0.910376	0.592359
0.329478	1.06608	0.158525	2.15105	0.329659	1.0681	0.495079	1.08	0.610996	1.06054	0.866643	0.596345	0.29783	2.21201	0.474119	1.11192	0.727893	0.616129	0.91093	0.597779
0.330476	1.07719	0.16053	2.15245	0.330659	1.07922	0.496089	1.08814	0.611988	1.0691	0.867201	0.601966	0.299892	2.21382	0.475159	1.12087	0.72847	0.62199	0.91149	0.603272
0.331485	1.08832	0.162536	2.15378	0.33167	1.09035	0.497107	1.09617	0.612988	1.07756	0.867765	0.607596	0.301955	2.21557	0.476208	1.12978	0.729052	0.62785	0.912055	0.608728
0.332504	1.09952	0.164543	2.1551	0.332691	1.10155	0.498132	1.10414	0.613996	1.08604	0.868333	0.613231	0.30402	2.21722	0.477264	1.1387	0.72964	0.633673	0.912624	0.61413
0.333534	1.11083	0.166552	2.15634	0.333723	1.1129	0.499164	1.11207	0.615012	1.09445	0.868907	0.618832	0.306087	2.21884	0.47833	1.14755	0.730233	0.639478	0.913199	0.619541
