Sym0		Asym0		Sym1		Sym2		Sym3		Sym4		Asym1		Asym2		Asym3		Asym4	
424  Points		527  Points		423  Points		403  Points		351  Points		252  Points		455  Points		399  Points		344  Points		216  Points	
Freq (MHz)	Vgr (m/ms)	Freq (MHz)	Vgr (m/ms)	Freq (MHz)	Vgr (m/ms)	Freq (MHz)	Vgr (m/ms)	Freq (MHz)	Vgr (m/ms)	Freq (MHz)	Vgr (m/ms)	Freq (MHz)	Vgr (m/ms)	Freq (MHz)	Vgr (m/ms)	Freq (MHz)	Vgr (m/ms)	Freq (MHz)	Vgr (m/ms)
0.27951	0.0110803	0.000234394	0.223946	0.27951	0.0118708	0.441257	0.00891968	0.559017	0.00907682	0.838526	0.00355311	0.139763	0.0731835	0.419267	0.0172377	0.698772	0.00691836	0.882516	0.00831779
0.27952	0.0166121	0.000443043	0.258877	0.279521	0.0173914	0.441265	0.0152162	0.559026	0.0150438	0.838529	0.00665752	0.139831	0.109098	0.419283	0.0234858	0.698779	0.0101539	0.882524	0.0114177
0.279541	0.0277142	0.000716782	0.328294	0.279543	0.0284602	0.441285	0.0277336	0.559045	0.026939	0.838538	0.0128946	0.139966	0.180733	0.419311	0.0359313	0.698791	0.0165647	0.882537	0.0176413
0.279572	0.0387856	0.00105478	0.396815	0.279574	0.0395382	0.441317	0.040244	0.559076	0.038864	0.838553	0.0191431	0.140168	0.251932	0.41935	0.0483711	0.69881	0.0229409	0.882556	0.0238629
0.279613	0.0498688	0.0014562	0.464279	0.279616	0.0506347	0.44136	0.0528136	0.559118	0.0507757	0.838574	0.0253413	0.140436	0.322407	0.419401	0.0608728	0.698834	0.0293213	0.882582	0.0300804
0.279665	0.0609756	0.00191991	0.530504	0.279669	0.061768	0.441416	0.0653552	0.559171	0.0626605	0.8386	0.0315855	0.140769	0.391946	0.419464	0.0733519	0.698864	0.03571	0.882612	0.03629
0.279727	0.0720564	0.00244474	0.595352	0.279731	0.0728287	0.441482	0.0778407	0.559235	0.074565	0.838632	0.0378481	0.141166	0.460491	0.419538	0.0857855	0.698901	0.0421154	0.882649	0.0424835
0.279799	0.0831585	0.00302929	0.65869	0.279804	0.0838904	0.441561	0.0903605	0.55931	0.0864354	0.838671	0.0440746	0.141627	0.527781	0.419624	0.0982017	0.698943	0.0484809	0.882692	0.0487182
0.279882	0.0942299	0.00367214	0.720401	0.279888	0.0950275	0.441651	0.102876	0.559396	0.098311	0.838715	0.0503019	0.14215	0.593733	0.419721	0.110656	0.698991	0.0548397	0.88274	0.054962
0.279974	0.105313	0.00437167	0.780468	0.279981	0.106096	0.441752	0.115382	0.559493	0.110197	0.838764	0.0565311	0.142733	0.658255	0.41983	0.123113	0.699045	0.0612585	0.882794	0.0611508
0.280078	0.11642	0.00512645	0.838785	0.280085	0.117173	0.441866	0.12787	0.559601	0.122104	0.83882	0.0627637	0.143376	0.721161	0.41995	0.135504	0.699105	0.0676509	0.882854	0.067376
0.280191	0.127501	0.00593466	0.895215	0.2802	0.128267	0.441991	0.140321	0.55972	0.133978	0.838881	0.0690035	0.144077	0.782373	0.420082	0.147907	0.699171	0.0739903	0.88292	0.0736008
0.280315	0.13853	0.00679459	0.949848	0.280324	0.139322	0.442127	0.152773	0.559851	0.14579	0.838948	0.0752574	0.144834	0.841808	0.420226	0.160336	0.699243	0.0803702	0.882991	0.0797516
0.28045	0.149602	0.0077046	1.00257	0.280459	0.150373	0.442275	0.165225	0.559992	0.15762	0.839022	0.0814663	0.145646	0.89945	0.420381	0.172741	0.699321	0.0867581	0.883068	0.0859742
0.280594	0.160687	0.00866277	1.05338	0.280605	0.161416	0.442435	0.177679	0.560144	0.169489	0.8391	0.0876587	0.14651	0.955259	0.420548	0.185101	0.699405	0.0931617	0.883151	0.0921937
0.280749	0.171723	0.00966745	1.10233	0.28076	0.172514	0.442606	0.190061	0.560308	0.181288	0.839185	0.0938911	0.147305	1.00244	0.420726	0.197443	0.699494	0.0995236	0.88324	0.0984072
0.280914	0.182809	0.0107168	1.14932	0.280926	0.183579	0.442789	0.202448	0.560482	0.193094	0.839275	0.10013	0.148013	1.04145	0.420916	0.209823	0.69959	0.105875	0.883335	0.104609
0.28109	0.193848	0.0118091	1.19447	0.281102	0.194576	0.442984	0.214843	0.560668	0.204914	0.839371	0.106383	0.148618	1.07295	0.421117	0.222131	0.699692	0.11228	0.883435	0.110786
0.281275	0.204867	0.0129426	1.2378	0.281289	0.205656	0.443189	0.227182	0.560864	0.216689	0.839473	0.11259	0.149109	1.09743	0.42133	0.234442	0.699799	0.118644	0.883541	0.116988
0.281471	0.215918	0.0141156	1.27929	0.281485	0.216683	0.443407	0.239483	0.561071	0.228447	0.839581	0.118777	0.149477	1.11506	0.421554	0.246759	0.699913	0.125	0.883653	0.123166
0.281678	0.22696	0.0153264	1.31904	0.281692	0.227679	0.443636	0.25178	0.56129	0.240171	0.839695	0.125	0.149716	1.12613	0.421789	0.259015	0.700032	0.13134	0.883771	0.129371
0.281894	0.237985	0.0165735	1.35709	0.28191	0.238756	0.443876	0.264069	0.561519	0.251901	0.839814	0.13122	0.150063	1.14196	0.422036	0.271297	0.700157	0.137721	0.883894	0.135554
0.282121	0.248975	0.0178552	1.39342	0.282137	0.249779	0.444128	0.276342	0.561759	0.263641	0.839939	0.137435	0.150446	1.15902	0.422295	0.283556	0.700289	0.14411	0.884023	0.141696
0.282358	0.25997	0.01917	1.42815	0.282375	0.260765	0.444391	0.288585	0.56201	0.27533	0.84007	0.14364	0.150975	1.18174	0.422565	0.295769	0.700426	0.150444	0.884158	0.1479
0.282606	0.270974	0.0205164	1.46135	0.282623	0.271751	0.444666	0.300765	0.562272	0.286988	0.840207	0.149823	0.15166	1.2098	0.422846	0.307963	0.700569	0.156813	0.884299	0.154082
0.282863	0.281994	0.021893	1.49303	0.282881	0.282735	0.444951	0.312893	0.562545	0.298659	0.840349	0.156036	0.152509	1.24279	0.423139	0.320121	0.700718	0.163178	0.884445	0.160221
0.283131	0.292975	0.0232985	1.52328	0.28315	0.293719	0.445249	0.325064	0.562829	0.310283	0.840498	0.162238	0.153533	1.28031	0.423443	0.332278	0.700873	0.169537	0.884597	0.166421
0.283409	0.30395	0.0247315	1.55215	0.283429	0.304698	0.445557	0.337176	0.563123	0.321886	0.840652	0.168416	0.154746	1.32171	0.423758	0.344433	0.701034	0.175883	0.884755	0.172593
0.283697	0.314914	0.0261907	1.57963	0.283718	0.315672	0.445877	0.349241	0.563428	0.333519	0.840812	0.174619	0.155996	1.36135	0.424084	0.356512	0.701201	0.182202	0.884919	0.178713
0.283996	0.325857	0.027675	1.60589	0.284017	0.326633	0.446208	0.361287	0.563745	0.345066	0.840977	0.1808	0.157283	1.39933	0.424422	0.368585	0.701374	0.188543	0.885088	0.184874
0.284305	0.336829	0.0291831	1.63094	0.284286	0.336174	0.44655	0.373293	0.564071	0.356588	0.841148	0.18701	0.158604	1.43568	0.424771	0.380647	0.701552	0.194924	0.885263	0.191043
0.284624	0.347786	0.030714	1.65481	0.284522	0.344349	0.446903	0.385294	0.564409	0.368133	0.841326	0.193203	0.159958	1.47041	0.425131	0.392685	0.701737	0.201242	0.885444	0.197156
0.284953	0.358715	0.0322667	1.67758	0.284721	0.351061	0.447268	0.39721	0.564757	0.379651	0.841508	0.199365	0.161344	1.50363	0.425503	0.404676	0.701927	0.207579	0.885631	0.203303
0.285292	0.369586	0.03384	1.69932	0.284881	0.356291	0.447644	0.409104	0.565116	0.391113	0.841697	0.205536	0.16276	1.5354	0.425885	0.416647	0.702124	0.213953	0.885823	0.209444
0.285641	0.380489	0.0354332	1.72002	0.285	0.36013	0.44803	0.420953	0.565486	0.40254	0.841891	0.211725	0.164205	1.56571	0.426279	0.428577	0.702326	0.220257	0.886021	0.215574
0.286001	0.391454	0.0370451	1.73975	0.285077	0.362696	0.448428	0.432786	0.565867	0.413967	0.842092	0.217879	0.165677	1.59468	0.426684	0.440498	0.702534	0.226566	0.886225	0.221681
0.286371	0.402326	0.038675	1.75861	0.285188	0.366408	0.448837	0.444588	0.566258	0.425323	0.842297	0.224033	0.167176	1.62238	0.4271	0.452403	0.702748	0.232885	0.886434	0.227816
0.286751	0.413155	0.0403221	1.77656	0.285311	0.370272	0.449256	0.456325	0.566659	0.436682	0.842509	0.23019	0.1687	1.64883	0.427527	0.4642	0.702968	0.239223	0.886649	0.233934
0.287141	0.424047	0.0419854	1.79372	0.28548	0.375502	0.449687	0.468009	0.567071	0.448048	0.842726	0.236351	0.170249	1.67406	0.427965	0.476002	0.703194	0.245529	0.88687	0.240017
0.287541	0.434919	0.0436645	1.8101	0.285697	0.382169	0.450129	0.479656	0.567494	0.459353	0.842949	0.242521	0.17182	1.69814	0.428414	0.487815	0.703426	0.25184	0.887097	0.246104
0.287951	0.445748	0.0453584	1.8257	0.285964	0.390302	0.450581	0.491306	0.567927	0.470611	0.843178	0.248635	0.173413	1.72121	0.428874	0.499575	0.703663	0.258165	0.887329	0.2522
0.288371	0.456568	0.0470665	1.84065	0.286285	0.399795	0.451044	0.502887	0.568371	0.481847	0.843413	0.254784	0.175027	1.74321	0.429345	0.511304	0.703907	0.264443	0.887566	0.258313
0.288802	0.467367	0.0487882	1.85488	0.286662	0.410687	0.451518	0.514404	0.568825	0.493041	0.843653	0.260931	0.176661	1.76421	0.429827	0.522968	0.704156	0.270772	0.88781	0.264385
0.289242	0.478198	0.0505229	1.86848	0.28705	0.421553	0.452003	0.525866	0.56929	0.504222	0.843899	0.267071	0.178315	1.78431	0.430319	0.534579	0.704411	0.277059	0.888059	0.270451
0.289693	0.489022	0.0522699	1.88146	0.287448	0.432369	0.452498	0.537289	0.569765	0.515378	0.844151	0.273199	0.179986	1.80347	0.430823	0.546227	0.704672	0.283335	0.888314	0.276505
0.290154	0.499755	0.0540287	1.89386	0.287856	0.443234	0.453004	0.548711	0.57025	0.526484	0.844408	0.279303	0.181675	1.82181	0.431271	0.556303	0.704939	0.28966	0.888574	0.282605
0.290624	0.510528	0.0557989	1.90578	0.288274	0.454086	0.45352	0.560056	0.570746	0.537563	0.844671	0.285431	0.183381	1.83936	0.431659	0.564885	0.705212	0.295937	0.888841	0.288654
0.291105	0.521308	0.05758	1.9171	0.288702	0.464932	0.454047	0.571319	0.571252	0.548589	0.84494	0.291535	0.185103	1.85612	0.431984	0.571965	0.705491	0.302194	0.889112	0.294672
0.291596	0.532029	0.0593712	1.92794	0.28914	0.475702	0.454515	0.581123	0.571768	0.559581	0.845214	0.297665	0.18684	1.87219	0.432244	0.577531	0.705775	0.308481	0.88939	0.300703
0.292096	0.542776	0.0611725	1.93834	0.289588	0.48647	0.45492	0.589474	0.572294	0.570578	0.845495	0.303771	0.188591	1.88755	0.432437	0.581785	0.706065	0.314757	0.889673	0.306758
0.292607	0.553504	0.0629831	1.94824	0.290046	0.49731	0.45526	0.596352	0.572831	0.581514	0.84578	0.309831	0.190357	1.90219	0.432561	0.584357	0.706362	0.321011	0.889961	0.31279
0.293128	0.564192	0.0648028	1.95777	0.290515	0.508077	0.455531	0.601737	0.573378	0.592398	0.846072	0.315946	0.192136	1.91625	0.43274	0.588006	0.706664	0.327293	0.890255	0.318774
0.293658	0.574877	0.0666312	1.96687	0.290993	0.518808	0.455732	0.6056	0.573935	0.603254	0.846369	0.322024	0.193927	1.92976	0.432937	0.592156	0.706971	0.333557	0.890555	0.32481
0.294199	0.585552	0.0684678	1.97556	0.291482	0.529556	0.455861	0.608229	0.574502	0.614052	0.846672	0.328101	0.195732	1.94267	0.433206	0.597669	0.707285	0.339787	0.890861	0.330802
0.294749	0.59621	0.0703124	1.98392	0.29198	0.540277	0.456048	0.611984	0.575079	0.624809	0.846981	0.334174	0.197547	1.95502	0.43355	0.604693	0.707605	0.346021	0.891172	0.336781
0.29531	0.606905	0.0721646	1.99193	0.292488	0.551021	0.456252	0.615846	0.575666	0.635557	0.847295	0.340243	0.199375	1.96687	0.433972	0.613134	0.70793	0.352265	0.891488	0.342807
0.29588	0.617529	0.0740242	1.99959	0.293007	0.561739	0.456532	0.621234	0.576264	0.646285	0.847615	0.3463	0.201212	1.97825	0.434473	0.623024	0.708261	0.358525	0.89181	0.348779
0.296461	0.628157	0.0758907	2.00694	0.293535	0.572408	0.456889	0.628001	0.576871	0.656975	0.84794	0.352336	0.203061	1.98914	0.435059	0.63434	0.708598	0.364748	0.892138	0.354717
0.297051	0.638793	0.0777639	2.01395	0.294073	0.58309	0.457327	0.636155	0.577488	0.667589	0.848271	0.358401	0.204919	1.9996	0.435655	0.6456	0.708941	0.370967	0.892471	0.360661
0.297651	0.64937	0.0796434	2.02072	0.294622	0.593777	0.457847	0.645684	0.578115	0.678122	0.848608	0.364454	0.206787	2.00963	0.436262	0.656833	0.709289	0.377181	0.89281	0.366615
0.298261	0.659979	0.0815293	2.02722	0.29518	0.604431	0.458454	0.656601	0.578669	0.687316	0.84895	0.370479	0.208664	2.01926	0.436879	0.668016	0.709643	0.383382	0.893155	0.372592
0.298881	0.670576	0.0834209	2.03342	0.295748	0.615068	0.459071	0.667443	0.579147	0.695149	0.849298	0.376523	0.21055	2.02854	0.437507	0.679174	0.710004	0.389631	0.893504	0.37854
0.29951	0.681149	0.0853183	2.03936	0.296326	0.625733	0.459698	0.678247	0.579547	0.701539	0.849652	0.382534	0.212444	2.03743	0.438145	0.690283	0.71037	0.395832	0.89386	0.384429
0.30015	0.691677	0.0872211	2.04509	0.296914	0.636339	0.460335	0.688996	0.579866	0.70661	0.850011	0.388548	0.214346	2.04594	0.438793	0.701367	0.710741	0.402008	0.894221	0.390349
0.300799	0.702257	0.0891291	2.05062	0.297512	0.646915	0.460981	0.699681	0.580101	0.710499	0.850376	0.394571	0.216256	2.05415	0.439452	0.712403	0.711119	0.408207	0.894587	0.396257
0.301458	0.712799	0.0910422	2.0559	0.298119	0.65755	0.461638	0.710296	0.580253	0.712891	0.850746	0.400539	0.218174	2.0621	0.440121	0.72334	0.711502	0.414379	0.894959	0.402138
0.302127	0.723334	0.0929601	2.06097	0.298737	0.668141	0.462305	0.720878	0.580472	0.716198	0.851122	0.40654	0.220099	2.0697	0.4408	0.734265	0.711891	0.420571	0.895337	0.408043
0.302806	0.733859	0.0948826	2.06583	0.299364	0.67871	0.462982	0.731405	0.580711	0.71988	0.851504	0.412538	0.22203	2.07698	0.441489	0.745148	0.712286	0.42673	0.89572	0.413919
0.303495	0.744361	0.0968095	2.0705	0.300002	0.689268	0.463668	0.741869	0.581038	0.724877	0.851891	0.418528	0.223969	2.08403	0.442188	0.756009	0.712686	0.432896	0.896108	0.419812
0.304103	0.753559	0.0987407	2.075	0.300649	0.69982	0.464364	0.752264	0.581454	0.731286	0.852284	0.424502	0.225914	2.09081	0.442898	0.766823	0.713092	0.439076	0.896502	0.425664
0.304627	0.761342	0.100676	2.07932	0.301306	0.71037	0.46507	0.762626	0.581963	0.738976	0.852682	0.430445	0.227865	2.09731	0.443617	0.77754	0.713504	0.44521	0.896901	0.43151
0.305065	0.767738	0.102615	2.08349	0.301972	0.720882	0.465785	0.772933	0.582567	0.747904	0.853086	0.436396	0.229822	2.1036	0.444346	0.788282	0.713922	0.451398	0.897306	0.437343
0.305413	0.77289	0.104558	2.08751	0.302649	0.731411	0.46651	0.783141	0.583268	0.758175	0.853495	0.442368	0.231785	2.10968	0.445086	0.798926	0.71429	0.456707	0.897716	0.44315
0.305671	0.776769	0.106505	2.09138	0.303335	0.741949	0.467244	0.793298	0.583979	0.768401	0.85391	0.448304	0.233753	2.1155	0.445835	0.809522	0.714608	0.461284	0.898132	0.448976
0.305837	0.77909	0.108455	2.09508	0.304031	0.752491	0.467988	0.803431	0.5847	0.778532	0.85433	0.454244	0.235727	2.12112	0.446594	0.82013	0.714873	0.465075	0.898553	0.45477
0.306076	0.782424	0.110409	2.09859	0.304737	0.762963	0.468741	0.813514	0.58543	0.788614	0.854756	0.460191	0.237705	2.12657	0.447363	0.830634	0.715084	0.467973	0.898979	0.460571
0.306337	0.786223	0.112366	2.10204	0.305453	0.773435	0.469504	0.8235	0.58617	0.798745	0.855188	0.466081	0.239689	2.13178	0.448142	0.841086	0.71524	0.470256	0.899411	0.466388
0.306694	0.791323	0.114326	2.10534	0.306179	0.783982	0.470276	0.833473	0.586918	0.808755	0.855625	0.472	0.241678	2.13681	0.448931	0.851549	0.715341	0.471668	0.899848	0.472162
0.307149	0.797819	0.116036	2.10813	0.306914	0.794492	0.471057	0.843367	0.587677	0.818703	0.856068	0.477905	0.243671	2.1417	0.449729	0.861944	0.715485	0.4736	0.900291	0.477924
0.307703	0.805585	0.117496	2.11041	0.307659	0.804947	0.471847	0.853148	0.588444	0.828658	0.856516	0.483783	0.245669	2.14641	0.450537	0.872232	0.715643	0.475766	0.900739	0.483661
0.308361	0.814682	0.118705	2.1123	0.308414	0.815411	0.472647	0.862909	0.589221	0.838506	0.856969	0.48968	0.247671	2.15093	0.451354	0.882539	0.715859	0.478744	0.901192	0.489424
0.309125	0.8252	0.119661	2.1137	0.309179	0.825917	0.473455	0.87266	0.590007	0.848337	0.857428	0.495542	0.249677	2.15528	0.452181	0.892784	0.716134	0.482541	0.901651	0.495162
0.309899	0.835696	0.120364	2.11467	0.309953	0.836406	0.474273	0.882296	0.590802	0.85816	0.857892	0.501406	0.251687	2.1595	0.453018	0.902959	0.71647	0.487061	0.902115	0.500853
0.310682	0.846144	0.120815	2.1154	0.310737	0.846888	0.475099	0.891875	0.591606	0.867906	0.858362	0.507273	0.253701	2.16359	0.453864	0.913101	0.716868	0.492415	0.902584	0.506595
0.311476	0.856641	0.121463	2.11636	0.311531	0.857402	0.475935	0.901425	0.592419	0.877576	0.858838	0.51315	0.255718	2.16754	0.454719	0.923189	0.717329	0.498475	0.903059	0.512293
0.312279	0.867163	0.122167	2.11729	0.312335	0.867896	0.476779	0.910888	0.593241	0.887208	0.859256	0.518247	0.25774	2.17135	0.455584	0.93325	0.717796	0.504545	0.903539	0.517975
0.313091	0.877661	0.123125	2.11864	0.313148	0.87838	0.477632	0.920307	0.594072	0.896822	0.859617	0.522561	0.259764	2.17501	0.456458	0.943224	0.718269	0.510656	0.904024	0.523627
0.313914	0.888147	0.124338	2.12029	0.313971	0.888895	0.478494	0.929667	0.594912	0.906352	0.859917	0.52612	0.261793	2.17856	0.457342	0.953192	0.718748	0.516714	0.904514	0.529291
0.314746	0.898663	0.125807	2.12228	0.314805	0.89939	0.479365	0.938925	0.595761	0.915842	0.860155	0.528968	0.263824	2.18202	0.458234	0.963083	0.719232	0.522783	0.904946	0.534278
0.315589	0.909231	0.127531	2.12452	0.315647	0.909947	0.480244	0.948168	0.596619	0.925311	0.860332	0.531127	0.265858	2.18533	0.459136	0.972936	0.719722	0.528857	0.905317	0.538462
0.316441	0.919789	0.129511	2.12693	0.3165	0.920499	0.481131	0.957367	0.597485	0.934733	0.860445	0.532459	0.267896	2.18852	0.460047	0.982769	0.720218	0.53486	0.905626	0.541896
0.317303	0.930341	0.131494	2.12931	0.317363	0.931049	0.482028	0.966471	0.59836	0.944058	0.860608	0.534293	0.269937	2.19161	0.460968	0.992483	0.720719	0.540902	0.905872	0.544616
0.318174	0.940891	0.133479	2.1316	0.318235	0.94167	0.482932	0.975527	0.599244	0.953335	0.860786	0.536353	0.27198	2.19463	0.461897	1.00217	0.721226	0.546962	0.906054	0.546588
0.319056	0.951512	0.135466	2.1338	0.319117	0.952254	0.483845	0.984487	0.600137	0.962624	0.86103	0.539229	0.274026	2.19752	0.462835	1.01185	0.721738	0.552995	0.90617	0.547839
0.319947	0.962133	0.137455	2.13593	0.320009	0.962856	0.484767	0.993434	0.601038	0.97181	0.861339	0.542783	0.276075	2.20029	0.463782	1.02145	0.722256	0.559014	0.906338	0.549772
0.320849	0.97279	0.139446	2.13799	0.320912	0.973541	0.485697	1.00234	0.601948	0.980944	0.861717	0.547064	0.278126	2.20299	0.464738	1.03102	0.72278	0.565027	0.906522	0.55181
0.32176	0.983502	0.141439	2.13996	0.321824	0.98423	0.486635	1.01115	0.602866	0.990088	0.862163	0.552129	0.28018	2.20559	0.465703	1.04056	0.723309	0.571036	0.906772	0.554475
0.322681	0.994168	0.143434	2.14183	0.322746	0.994921	0.487581	1.01988	0.603793	0.999128	0.86268	0.557871	0.282236	2.20813	0.466677	1.04998	0.723844	0.577044	0.90709	0.557962
0.323612	1.00492	0.14543	2.14365	0.323678	1.00569	0.488535	1.02856	0.604728	1.00812	0.863202	0.563671	0.284294	2.21058	0.46766	1.05938	0.724384	0.583014	0.907478	0.562087
0.324554	1.01572	0.147428	2.14543	0.32462	1.01645	0.489497	1.03726	0.605671	1.01708	0.86373	0.569464	0.286355	2.2129	0.468651	1.06876	0.72493	0.588965	0.907936	0.566959
0.325505	1.02654	0.149428	2.14713	0.325572	1.02729	0.490468	1.04582	0.606623	1.02595	0.864263	0.57518	0.288418	2.21519	0.469652	1.07807	0.725482	0.594944	0.908467	0.572554
0.326467	1.03744	0.151429	2.14875	0.326534	1.0382	0.491446	1.05431	0.607583	1.03479	0.864802	0.580932	0.290483	2.2174	0.47066	1.08734	0.726039	0.600936	0.909003	0.578099
0.327438	1.04838	0.153432	2.15033	0.327506	1.04912	0.492432	1.06281	0.608551	1.0436	0.865346	0.5867	0.29255	2.21953	0.471678	1.09659	0.726601	0.606862	0.909544	0.583618
0.32842	1.05935	0.155436	2.15185	0.328489	1.06014	0.493427	1.07119	0.609527	1.05236	0.865895	0.592405	0.294619	2.22159	0.472704	1.10575	0.72717	0.612791	0.910091	0.58916
0.329412	1.0704	0.157442	2.1533	0.329482	1.07118	0.494428	1.07952	0.610512	1.06106	0.86645	0.598113	0.296689	2.22353	0.473738	1.11484	0.727743	0.618758	0.910642	0.594715
0.330415	1.08152	0.159448	2.15473	0.330485	1.08227	0.495438	1.08783	0.611505	1.0697	0.86701	0.603824	0.298762	2.22545	0.474781	1.12389	0.728322	0.624672	0.911199	0.600239
0.331428	1.09269	0.161457	2.1561	0.331498	1.09349	0.496455	1.09604	0.612505	1.0783	0.867575	0.609536	0.300836	2.22729	0.475832	1.13295	0.728907	0.630595	0.911761	0.605711
0.332451	1.10395	0.163466	2.15737	0.332522	1.10474	0.49748	1.10422	0.613514	1.08685	0.868146	0.615211	0.302912	2.22906	0.476892	1.14195	0.729498	0.636523	0.912328	0.611193
0.333485	1.11529	0.165477	2.15863	0.333557	1.11608	0.498513	1.11233	0.61453	1.09534	0.868721	0.620869	0.30499	2.23082	0.47796	1.15085	0.730093	0.642416	0.9129	0.616681
0.334529	1.12675	0.167488	2.15984	0.334602	1.12753	0.499553	1.12038	0.615555	1.10375	0.869302	0.626554	0.307069	2.23247	0.479037	1.15973	0.730695	0.648293	0.913477	0.622135
