Sym0		Asym0		Sym1		Sym2		Sym3		Sym4		Asym1		Asym2		Asym3		Asym4	
419  Points		526  Points		419  Points		399  Points		348  Points		249  Points		452  Points		395  Points		340  Points		214  Points	
Freq (MHz)	Vgr (m/ms)	Freq (MHz)	Vgr (m/ms)	Freq (MHz)	Vgr (m/ms)	Freq (MHz)	Vgr (m/ms)	Freq (MHz)	Vgr (m/ms)	Freq (MHz)	Vgr (m/ms)	Freq (MHz)	Vgr (m/ms)	Freq (MHz)	Vgr (m/ms)	Freq (MHz)	Vgr (m/ms)	Freq (MHz)	Vgr (m/ms)
0.279511	0.0140179	0.000176654	0.200523	0.27951	0.0124401	0.441434	0.00907018	0.559017	0.00893885	0.838526	0.00374773	0.139764	0.0748955	0.419268	0.0178478	0.698772	0.00729347	0.88287	0.00842973
0.279524	0.0197858	0.00036348	0.235939	0.279522	0.0182054	0.441443	0.0153574	0.559026	0.0149902	0.838529	0.00694775	0.139833	0.111316	0.419284	0.0242365	0.698779	0.0105823	0.882878	0.0115566
0.279548	0.0313034	0.000616301	0.306373	0.279544	0.029715	0.441463	0.0279203	0.559045	0.0271383	0.838538	0.0133251	0.139971	0.183955	0.419313	0.0370306	0.698792	0.0171528	0.882892	0.017788
0.279583	0.0428396	0.000934372	0.375976	0.279577	0.0412351	0.441495	0.0405216	0.559076	0.0392763	0.838554	0.0197079	0.140176	0.256065	0.419353	0.0498014	0.698811	0.0237019	0.882911	0.0240251
0.279628	0.0544129	0.00131689	0.444577	0.279621	0.0527764	0.441539	0.0531265	0.559118	0.051394	0.838575	0.0261012	0.140448	0.327482	0.419406	0.0625255	0.698836	0.0302818	0.882937	0.0302737
0.279684	0.0659139	0.00176279	0.511905	0.279676	0.0642867	0.441594	0.0656655	0.559172	0.0635446	0.838602	0.0325159	0.140786	0.398025	0.41947	0.0753028	0.698868	0.0368496	0.882968	0.0364722
0.279751	0.077417	0.00227077	0.57786	0.279741	0.0758083	0.441661	0.0782191	0.559237	0.0756876	0.838636	0.0388999	0.14119	0.467409	0.419546	0.0880402	0.698905	0.0433934	0.883005	0.0427167
0.279828	0.0889242	0.00283957	0.642388	0.279817	0.0873524	0.44174	0.090802	0.559313	0.0878154	0.838675	0.0452226	0.141657	0.53557	0.419634	0.100771	0.698948	0.0499626	0.883047	0.0489802
0.279916	0.100439	0.00346779	0.705306	0.279904	0.0988684	0.44183	0.10337	0.5594	0.0999127	0.83872	0.0516425	0.142188	0.602386	0.419734	0.113561	0.698998	0.0565091	0.883096	0.0552084
0.280015	0.111971	0.00415383	0.766543	0.280001	0.110328	0.441932	0.115908	0.559499	0.112022	0.838771	0.0580368	0.14278	0.667682	0.419845	0.12625	0.699054	0.0630837	0.88315	0.0614392
0.280125	0.123462	0.00489616	0.825954	0.280109	0.121822	0.442046	0.12846	0.559609	0.124157	0.838828	0.0643803	0.143432	0.731332	0.419969	0.138959	0.699116	0.0696409	0.88321	0.0676751
0.280246	0.134944	0.00569291	0.883546	0.280228	0.133383	0.442172	0.140967	0.559731	0.136267	0.838891	0.0707683	0.144143	0.793226	0.420104	0.151705	0.699183	0.0761636	0.883276	0.0739214
0.280377	0.146411	0.00654255	0.939257	0.280358	0.14486	0.442309	0.153455	0.559863	0.148331	0.83896	0.0771723	0.14491	0.853366	0.420252	0.164379	0.699257	0.0827636	0.883348	0.0801152
0.280518	0.157917	0.00744311	0.993038	0.280498	0.156315	0.442458	0.165981	0.560007	0.160372	0.839035	0.0835349	0.145733	0.911684	0.420411	0.177056	0.699338	0.0892987	0.883426	0.0863505
0.280671	0.169432	0.00839296	1.04494	0.280649	0.1678	0.442618	0.178435	0.560162	0.172442	0.839116	0.0898882	0.146609	0.968115	0.420581	0.18974	0.699424	0.0958502	0.883509	0.0925953
0.280834	0.180888	0.00939023	1.09483	0.280811	0.179271	0.44279	0.190893	0.560328	0.184499	0.839202	0.0962958	0.147415	1.01579	0.420764	0.202365	0.699516	0.102435	0.883598	0.0987863
0.281008	0.192302	0.0104331	1.14283	0.280983	0.190712	0.442974	0.203356	0.560506	0.196526	0.839295	0.102666	0.148131	1.05525	0.420959	0.215015	0.699615	0.108939	0.883693	0.105016
0.281192	0.203777	0.0115198	1.18894	0.281166	0.20217	0.443169	0.215758	0.560694	0.20857	0.839394	0.109034	0.148745	1.08701	0.421165	0.227646	0.699719	0.115501	0.883794	0.111249
0.281388	0.215228	0.0126485	1.23313	0.28136	0.213661	0.443376	0.228184	0.560894	0.220572	0.839498	0.115397	0.149242	1.11161	0.421383	0.240235	0.69983	0.122035	0.8839	0.117491
0.281593	0.226632	0.0138176	1.27545	0.281564	0.225069	0.443594	0.240585	0.561105	0.232564	0.839609	0.121753	0.149615	1.12955	0.421612	0.252817	0.699947	0.128583	0.884013	0.123675
0.28181	0.238086	0.0150252	1.31598	0.281779	0.23646	0.443824	0.252936	0.561328	0.244537	0.839725	0.128092	0.149857	1.14087	0.421854	0.265384	0.70007	0.135162	0.884131	0.12989
0.282037	0.249496	0.0162698	1.35478	0.282005	0.247888	0.444066	0.265261	0.561561	0.25647	0.839847	0.134471	0.150209	1.15681	0.422107	0.277919	0.700199	0.141653	0.884255	0.136096
0.282275	0.26089	0.0175497	1.39189	0.282241	0.25932	0.444318	0.277605	0.561806	0.2684	0.839976	0.140856	0.150596	1.17389	0.422372	0.290465	0.700334	0.148191	0.884384	0.142282
0.282523	0.272252	0.0188634	1.42729	0.282488	0.270685	0.444583	0.289915	0.562061	0.28032	0.84011	0.147182	0.151133	1.19677	0.422648	0.302959	0.700475	0.154748	0.88452	0.148501
0.282782	0.283624	0.0202093	1.46109	0.282745	0.282062	0.444859	0.302157	0.562328	0.292221	0.84025	0.153536	0.151826	1.2252	0.422936	0.315424	0.700622	0.16127	0.884661	0.154713
0.283052	0.295015	0.021586	1.49339	0.283014	0.293463	0.445146	0.314409	0.562606	0.304085	0.840396	0.15987	0.152686	1.25853	0.423236	0.327901	0.700775	0.167796	0.884808	0.160913
0.283332	0.306371	0.022992	1.52416	0.283292	0.304767	0.445445	0.32661	0.562895	0.315948	0.840548	0.16624	0.153723	1.29631	0.423547	0.340331	0.700935	0.174328	0.884961	0.167086
0.283623	0.31773	0.0244261	1.55355	0.283582	0.316095	0.445754	0.33878	0.563195	0.327809	0.840706	0.172607	0.154951	1.33805	0.42387	0.352739	0.7011	0.180876	0.88512	0.17328
0.283924	0.329023	0.0258869	1.58155	0.283881	0.327472	0.446076	0.350961	0.563505	0.339592	0.84087	0.178897	0.156216	1.37808	0.424205	0.365105	0.701272	0.187378	0.885284	0.179442
0.284236	0.340329	0.0273731	1.60827	0.284192	0.338799	0.446408	0.363092	0.563827	0.351366	0.841039	0.18525	0.157519	1.41636	0.42455	0.37746	0.701449	0.193865	0.885454	0.185615
0.284558	0.351662	0.0288837	1.63372	0.284471	0.348584	0.446752	0.375197	0.56416	0.363123	0.841215	0.191586	0.158856	1.45298	0.424908	0.38979	0.701633	0.200392	0.88563	0.191809
0.284891	0.362903	0.0304174	1.65797	0.284715	0.356999	0.447108	0.387248	0.564504	0.374844	0.841396	0.197884	0.160226	1.48802	0.425277	0.402074	0.701823	0.206929	0.885811	0.197969
0.285234	0.374179	0.0319732	1.68111	0.284921	0.36393	0.447474	0.399264	0.564859	0.386568	0.841583	0.204255	0.161628	1.52147	0.425657	0.414336	0.702018	0.21341	0.885999	0.204139
0.285588	0.38545	0.03355	1.70317	0.285087	0.369365	0.447852	0.411286	0.565224	0.398223	0.841777	0.210552	0.163061	1.55343	0.426049	0.426555	0.70222	0.219927	0.886192	0.210326
0.285953	0.396641	0.0351468	1.7242	0.285211	0.373505	0.44824	0.423244	0.565601	0.409889	0.841976	0.216847	0.164523	1.58402	0.426452	0.438762	0.702428	0.226444	0.886391	0.216474
0.286327	0.40789	0.0367628	1.74423	0.285291	0.376069	0.44864	0.435149	0.565988	0.421501	0.842181	0.223212	0.166013	1.6132	0.426866	0.450945	0.702642	0.232884	0.886595	0.222618
0.286713	0.419109	0.038397	1.76333	0.285406	0.37969	0.449051	0.44702	0.566386	0.433079	0.842392	0.229495	0.167529	1.64104	0.427292	0.463079	0.702862	0.239393	0.886805	0.228753
0.287108	0.430266	0.0400486	1.78154	0.285533	0.383723	0.449473	0.458897	0.566795	0.444663	0.842608	0.235764	0.169071	1.66767	0.427729	0.475189	0.703088	0.245893	0.887021	0.234871
0.287514	0.441449	0.0417167	1.79891	0.285708	0.389133	0.449906	0.470712	0.567215	0.456187	0.842831	0.242077	0.170637	1.69311	0.428178	0.487251	0.70332	0.252374	0.887243	0.241028
0.287931	0.452608	0.0434007	1.81549	0.285933	0.39607	0.45035	0.482477	0.567645	0.467662	0.84306	0.248402	0.172226	1.71736	0.428637	0.49929	0.703559	0.25889	0.887471	0.247189
0.288358	0.46372	0.0450997	1.8313	0.28621	0.404435	0.450805	0.494214	0.568086	0.479112	0.843294	0.254681	0.173837	1.74051	0.429108	0.511284	0.703803	0.265331	0.887704	0.253287
0.288795	0.474811	0.0468131	1.84637	0.286542	0.414156	0.451271	0.505898	0.568538	0.490588	0.843534	0.26094	0.175469	1.76267	0.42959	0.523259	0.704053	0.271767	0.887943	0.259402
0.289243	0.485934	0.0485402	1.86076	0.286933	0.425335	0.451748	0.517546	0.569	0.501966	0.84378	0.267233	0.177121	1.78386	0.430083	0.535197	0.704309	0.278267	0.888187	0.265554
0.2897	0.497048	0.0502804	1.87451	0.287335	0.436527	0.452236	0.529124	0.569473	0.513297	0.844032	0.27352	0.178793	1.80404	0.430587	0.547062	0.704572	0.284749	0.888437	0.271633
0.290169	0.508068	0.0520331	1.8876	0.287747	0.447727	0.452734	0.540707	0.569957	0.52468	0.84429	0.279795	0.180483	1.82333	0.431103	0.558926	0.70484	0.291194	0.888693	0.277711
0.290647	0.519123	0.0537977	1.90014	0.288169	0.458856	0.453243	0.552228	0.570451	0.535947	0.844553	0.286046	0.18219	1.84183	0.431561	0.569246	0.705114	0.297638	0.888955	0.283862
0.291136	0.530172	0.0555738	1.91212	0.288602	0.46995	0.453763	0.563698	0.570955	0.547201	0.844823	0.292322	0.183915	1.85947	0.431958	0.577953	0.705394	0.304082	0.889222	0.289938
0.291635	0.541139	0.0573608	1.92356	0.289045	0.481064	0.454294	0.575139	0.571471	0.55843	0.845098	0.298576	0.185655	1.87635	0.43229	0.585138	0.705681	0.310524	0.889495	0.296011
0.292144	0.552159	0.0591582	1.93449	0.289498	0.492151	0.454765	0.585061	0.571996	0.56961	0.845379	0.304784	0.187411	1.89251	0.432556	0.590939	0.705973	0.316963	0.889774	0.302077
0.292664	0.563139	0.0609655	1.94494	0.289962	0.503224	0.455172	0.59346	0.572532	0.580762	0.845666	0.311048	0.189182	1.90796	0.432754	0.595157	0.706271	0.323396	0.890058	0.308131
0.293194	0.574039	0.0627823	1.95491	0.290436	0.51429	0.455514	0.600465	0.573078	0.591861	0.845959	0.317278	0.190967	1.92275	0.432881	0.597712	0.706576	0.329816	0.890348	0.314233
0.293734	0.585001	0.0646082	1.96446	0.29092	0.525316	0.455787	0.605983	0.573635	0.602925	0.846257	0.323512	0.192765	1.93692	0.433064	0.601502	0.706886	0.33621	0.890644	0.320284
0.294284	0.595938	0.0664429	1.97366	0.291415	0.536323	0.455989	0.609886	0.574202	0.613921	0.846562	0.329755	0.194576	1.95048	0.433265	0.605756	0.707202	0.342627	0.890945	0.326307
0.294844	0.606825	0.0682859	1.98241	0.291919	0.547319	0.45612	0.612452	0.574779	0.624928	0.846872	0.335941	0.196399	1.96346	0.433541	0.611424	0.707524	0.349089	0.891252	0.332348
0.295415	0.617687	0.0701369	1.99074	0.292435	0.55831	0.456308	0.616262	0.575366	0.63588	0.847188	0.342162	0.198234	1.97591	0.433893	0.618591	0.707853	0.355495	0.891564	0.338424
0.295995	0.62857	0.0719955	1.99876	0.29296	0.569263	0.456513	0.620295	0.575964	0.6468	0.847509	0.348377	0.200081	1.98789	0.434324	0.627211	0.708187	0.36186	0.891882	0.344423
0.296586	0.639423	0.0738614	2.00646	0.293495	0.580195	0.456795	0.625653	0.576571	0.657652	0.847837	0.354582	0.201939	1.99933	0.434837	0.637285	0.708527	0.36822	0.892206	0.350415
0.297187	0.650217	0.0757343	2.0138	0.294041	0.591118	0.457155	0.63249	0.577189	0.668443	0.84817	0.360766	0.203807	2.01029	0.435436	0.648819	0.708873	0.37464	0.892535	0.356466
0.297797	0.661038	0.0776139	2.02085	0.294597	0.602036	0.457596	0.640833	0.577817	0.679259	0.848509	0.366909	0.205685	2.02086	0.436046	0.660298	0.709225	0.381035	0.89287	0.36249
0.298418	0.671839	0.0794999	2.02764	0.295163	0.612915	0.45812	0.650519	0.578455	0.689977	0.848854	0.373116	0.207572	2.03102	0.436667	0.671751	0.709583	0.387379	0.893211	0.368458
0.299049	0.682603	0.0813921	2.03411	0.295739	0.623774	0.458731	0.661562	0.579019	0.6993	0.849204	0.379305	0.209469	2.04071	0.437298	0.68319	0.709947	0.393769	0.893557	0.374461
0.29969	0.693363	0.0832903	2.04031	0.296325	0.634661	0.459353	0.672577	0.579506	0.7072	0.849561	0.385456	0.211375	2.05002	0.43794	0.694549	0.710317	0.400103	0.893908	0.380463
0.300341	0.704116	0.085194	2.04628	0.296921	0.645487	0.459985	0.683541	0.579912	0.713751	0.849923	0.391607	0.213289	2.05904	0.438592	0.705832	0.710692	0.406473	0.894266	0.386386
0.301002	0.714857	0.0871033	2.05197	0.297528	0.656284	0.460627	0.694443	0.580236	0.718904	0.85029	0.397756	0.215212	2.06769	0.439255	0.717076	0.711074	0.41284	0.894628	0.392373
0.301673	0.725571	0.0890177	2.05744	0.298144	0.667102	0.461279	0.705277	0.580476	0.722679	0.850664	0.403902	0.217142	2.07596	0.439928	0.728338	0.711462	0.419129	0.894997	0.398342
0.302354	0.736233	0.0909371	2.06273	0.298771	0.677894	0.461941	0.716114	0.58063	0.725062	0.851043	0.410042	0.21908	2.08391	0.440612	0.739535	0.711855	0.425482	0.895371	0.404274
0.303045	0.746936	0.0928613	2.06781	0.299408	0.688637	0.462613	0.726879	0.580853	0.728537	0.851428	0.416169	0.221025	2.09162	0.441306	0.750627	0.712255	0.431816	0.89575	0.410205
0.303746	0.75765	0.0947902	2.07263	0.300054	0.699392	0.463295	0.737535	0.581096	0.732377	0.851818	0.422271	0.222978	2.09903	0.442011	0.761703	0.71266	0.438112	0.896135	0.416134
0.304457	0.768311	0.0967235	2.07728	0.300711	0.710152	0.463987	0.748173	0.581429	0.737448	0.852215	0.428396	0.224937	2.10614	0.442726	0.772771	0.713071	0.444478	0.896525	0.42206
0.305085	0.777594	0.098661	2.08176	0.301377	0.720843	0.464689	0.758803	0.581852	0.74386	0.852617	0.434493	0.226902	2.11299	0.443451	0.783761	0.713488	0.450765	0.896921	0.427979
0.305626	0.785445	0.100603	2.08603	0.302054	0.731535	0.465401	0.769354	0.58237	0.751652	0.853024	0.440608	0.228874	2.11956	0.444186	0.794676	0.713911	0.45704	0.897323	0.433885
0.306077	0.791979	0.102548	2.09018	0.302741	0.742264	0.466123	0.779793	0.582984	0.760753	0.853438	0.446685	0.230852	2.12596	0.444932	0.80559	0.71434	0.463365	0.89773	0.439763
0.306437	0.797209	0.104497	2.09415	0.303437	0.752939	0.466854	0.79025	0.583698	0.771119	0.853857	0.452761	0.232835	2.13209	0.445687	0.816431	0.714718	0.468782	0.898142	0.445661
0.306702	0.801048	0.10645	2.09799	0.304144	0.763623	0.467596	0.800641	0.584421	0.781503	0.854281	0.458834	0.234825	2.13798	0.446453	0.827234	0.715044	0.473469	0.89856	0.451525
0.306873	0.803431	0.108407	2.10164	0.30486	0.774275	0.468346	0.810928	0.585154	0.791785	0.854712	0.464901	0.236819	2.1437	0.447229	0.837982	0.715316	0.477376	0.898984	0.457392
0.30712	0.806906	0.110367	2.10514	0.305586	0.784911	0.469107	0.821161	0.585896	0.802016	0.855148	0.470955	0.238819	2.1492	0.448014	0.848667	0.715533	0.480351	0.899413	0.463268
0.307389	0.810746	0.112329	2.10855	0.306323	0.795575	0.469876	0.831368	0.586648	0.812222	0.855589	0.476985	0.240824	2.15451	0.44881	0.859319	0.715693	0.482544	0.899847	0.469086
0.307757	0.81587	0.114043	2.11139	0.307069	0.806181	0.470656	0.841562	0.58741	0.822342	0.856036	0.483038	0.242834	2.15966	0.449616	0.869882	0.715796	0.48401	0.900287	0.474937
0.308226	0.822382	0.115505	2.11371	0.307825	0.816831	0.471445	0.851676	0.588181	0.832456	0.856489	0.489065	0.244848	2.16458	0.450431	0.880437	0.715945	0.486154	0.900732	0.480779
0.308798	0.830273	0.116715	2.11564	0.308591	0.827466	0.472243	0.861677	0.588961	0.84253	0.856948	0.495114	0.246867	2.16934	0.451256	0.890988	0.716107	0.488412	0.901183	0.486604
0.309476	0.839546	0.117673	2.11714	0.309367	0.838057	0.47305	0.871621	0.589751	0.85251	0.857412	0.501132	0.248891	2.17396	0.452091	0.90139	0.716328	0.491387	0.901639	0.492394
0.310263	0.850162	0.118377	2.11822	0.310153	0.848662	0.473867	0.881574	0.590549	0.862481	0.857882	0.507089	0.250918	2.17839	0.452936	0.911791	0.716611	0.495182	0.9021	0.498188
0.31106	0.86078	0.118829	2.11889	0.310948	0.859275	0.474693	0.891457	0.591358	0.872411	0.858357	0.51307	0.25295	2.18273	0.45379	0.922156	0.716955	0.499863	0.902567	0.503989
0.311867	0.871362	0.119477	2.11981	0.311754	0.869891	0.475528	0.901233	0.592175	0.882209	0.858838	0.5191	0.254985	2.18688	0.454654	0.932428	0.717363	0.505312	0.903039	0.509734
0.312683	0.881964	0.120183	2.12081	0.312569	0.88051	0.476372	0.910992	0.593002	0.892016	0.859324	0.52508	0.257025	2.19086	0.455528	0.942691	0.717837	0.5115	0.903517	0.515509
0.31351	0.892611	0.121143	2.12218	0.313394	0.891129	0.477226	0.920705	0.593837	0.901826	0.859753	0.530231	0.259068	2.19479	0.456411	0.952877	0.718316	0.517743	0.904	0.521274
0.314347	0.903245	0.122358	2.12387	0.31423	0.901748	0.478088	0.930322	0.594682	0.911529	0.860121	0.534636	0.261115	2.19855	0.457303	0.963023	0.718802	0.523977	0.904488	0.527017
0.315193	0.913835	0.123829	2.12587	0.315075	0.912368	0.478959	0.939892	0.595536	0.921141	0.860428	0.538346	0.263165	2.20211	0.458205	0.973113	0.719293	0.530171	0.904982	0.53279
0.31605	0.924477	0.125556	2.12815	0.31593	0.922988	0.479839	0.9494	0.596399	0.930744	0.860672	0.541328	0.265218	2.20562	0.459117	0.983139	0.719789	0.53638	0.905417	0.537772
0.316916	0.935181	0.12754	2.13063	0.316795	0.933682	0.480728	0.958879	0.59727	0.940343	0.860853	0.543223	0.267275	2.20905	0.460037	0.993132	0.720292	0.542561	0.90579	0.541966
0.317792	0.945843	0.129526	2.13304	0.31767	0.944375	0.481626	0.968269	0.598151	0.94983	0.860969	0.544612	0.269334	2.21234	0.460967	1.00307	0.7208	0.548728	0.906101	0.545481
0.318678	0.956521	0.131514	2.13538	0.318554	0.955032	0.482533	0.977615	0.59904	0.959261	0.861136	0.546749	0.271397	2.21549	0.461906	1.01295	0.721315	0.554924	0.906349	0.548224
0.319575	0.967243	0.133505	2.13765	0.319449	0.965707	0.483448	0.986902	0.599938	0.968664	0.861318	0.548732	0.273463	2.21853	0.462855	1.02276	0.721835	0.561062	0.906532	0.550278
0.320481	0.977951	0.135498	2.13978	0.320354	0.976464	0.484372	0.996123	0.600845	0.978017	0.861567	0.551635	0.275531	2.22152	0.463812	1.03257	0.72236	0.567207	0.906649	0.551673
0.321397	0.988688	0.137492	2.14186	0.321269	0.987226	0.485304	1.00528	0.601761	0.987344	0.861884	0.555317	0.277602	2.2244	0.464779	1.04231	0.722891	0.573392	0.906818	0.55355
0.322323	0.999513	0.139489	2.14386	0.322193	0.997991	0.486245	1.01439	0.602685	0.996585	0.86227	0.559691	0.279676	2.22716	0.465754	1.05198	0.723429	0.579524	0.907003	0.555481
0.323259	1.01035	0.141487	2.14577	0.323128	1.00883	0.487194	1.02345	0.603618	1.00575	0.862726	0.564868	0.281752	2.22982	0.466739	1.06161	0.723971	0.58563	0.907255	0.558254
0.324206	1.02118	0.143487	2.14761	0.324073	1.01967	0.488152	1.03242	0.604559	1.01491	0.863255	0.570754	0.283831	2.2324	0.467733	1.07119	0.72452	0.591759	0.907575	0.561743
0.325162	1.03209	0.145489	2.14937	0.325028	1.03054	0.489118	1.04137	0.605509	1.02399	0.86379	0.576626	0.285912	2.23493	0.468735	1.0807	0.725074	0.597863	0.907965	0.565946
0.326129	1.04301	0.147492	2.15113	0.325994	1.04151	0.490092	1.05024	0.606467	1.03303	0.86433	0.582529	0.287996	2.23737	0.469746	1.09018	0.725634	0.603954	0.908427	0.57092
0.327106	1.05399	0.149497	2.15277	0.326969	1.05249	0.491075	1.05906	0.607434	1.04203	0.864875	0.58841	0.290081	2.23969	0.470767	1.09961	0.726199	0.610076	0.908961	0.576536
0.328093	1.06509	0.151504	2.15433	0.327955	1.06351	0.492066	1.0678	0.608409	1.05092	0.865426	0.59428	0.292169	2.24198	0.471795	1.10897	0.726771	0.61614	0.909501	0.582163
0.32909	1.0762	0.153512	2.15588	0.328951	1.07466	0.493065	1.07649	0.609392	1.05983	0.865982	0.600108	0.294259	2.24419	0.472833	1.1183	0.727348	0.622212	0.910046	0.587834
0.330098	1.08736	0.155521	2.15735	0.329957	1.0858	0.494072	1.08516	0.610384	1.06868	0.866544	0.605952	0.296351	2.24625	0.473879	1.12755	0.72793	0.628287	0.910597	0.593452
0.331117	1.09858	0.157532	2.15874	0.330974	1.09701	0.495087	1.09374	0.611383	1.07743	0.867112	0.611803	0.298444	2.2483	0.474934	1.13678	0.728518	0.634328	0.911152	0.599008
0.332145	1.1099	0.159544	2.16014	0.332001	1.10833	0.49611	1.10227	0.612391	1.08616	0.867684	0.617586	0.30054	2.25032	0.475997	1.14598	0.729112	0.640387	0.911713	0.604606
0.333185	1.12132	0.161557	2.16142	0.333039	1.1197	0.497141	1.11072	0.613407	1.09484	0.868262	0.623407	0.302638	2.2522	0.477069	1.15508	0.729712	0.64642	0.912279	0.610224
0.334235	1.13277	0.163571	2.16264	0.334088	1.13117	0.498179	1.11912	0.614431	1.10344	0.868846	0.629247	0.304737	2.25406	0.47815	1.16414	0.730317	0.65244	0.91285	0.61578
0.335296	1.14436	0.165587	2.16388	0.335147	1.14276	0.499226	1.12749	0.615463	1.11202	0.869435	0.635023	0.306838	2.25583	0.479239	1.17317	0.730927	0.658452	0.913426	0.621305
0.336367	1.15605	0.167603	2.16505	0.336217	1.15442	0.50028	1.13578	0.616504	1.12052	0.870029	0.640804	0.30894	2.25752	0.480336	1.18212	0.731544	0.664461	0.914008	0.626887
