Sym0		Asym0		Sym1		Sym2		Sym3		Sym4		Asym1		Asym2		Asym3		Asym4	
423  Points		527  Points		423  Points		403  Points		351  Points		252  Points		455  Points		399  Points		344  Points		216  Points	
Freq (MHz)	Vgr (m/ms)	Freq (MHz)	Vgr (m/ms)	Freq (MHz)	Vgr (m/ms)	Freq (MHz)	Vgr (m/ms)	Freq (MHz)	Vgr (m/ms)	Freq (MHz)	Vgr (m/ms)	Freq (MHz)	Vgr (m/ms)	Freq (MHz)	Vgr (m/ms)	Freq (MHz)	Vgr (m/ms)	Freq (MHz)	Vgr (m/ms)
0.27951	0.0112439	0.000216749	0.21683	0.27951	0.0118602	0.44127	0.00893789	0.559017	0.00912797	0.838526	0.00358707	0.139763	0.0732853	0.419267	0.0172392	0.698772	0.00695977	0.882541	0.00829342
0.27952	0.0168171	0.000418768	0.251846	0.279521	0.0174465	0.441278	0.0151941	0.559026	0.015096	0.838529	0.00668968	0.139831	0.109235	0.419283	0.0235084	0.698779	0.0101973	0.882549	0.0114391
0.279541	0.0279702	0.000686037	0.321446	0.279543	0.0285658	0.441298	0.0277373	0.559045	0.0269943	0.838538	0.0129213	0.139967	0.180974	0.419311	0.0360173	0.698791	0.0166138	0.882563	0.0176534
0.279572	0.0390704	0.00101775	0.390115	0.279574	0.0396715	0.44133	0.0402993	0.559076	0.0389256	0.838553	0.0191591	0.140169	0.252237	0.41935	0.0485108	0.69881	0.0230016	0.882582	0.0238565
0.279614	0.0502112	0.00141297	0.457724	0.279617	0.0508232	0.441373	0.0528255	0.559118	0.0508498	0.838574	0.025409	0.140437	0.322766	0.419402	0.0609732	0.698834	0.0294052	0.882607	0.0301103
0.279666	0.06136	0.00187067	0.524095	0.279669	0.0619207	0.441428	0.0653535	0.559171	0.0627597	0.8386	0.0316832	0.14077	0.392412	0.419464	0.0734469	0.698865	0.035767	0.882638	0.0363192
0.279728	0.0724515	0.00238957	0.589162	0.279732	0.0730562	0.441495	0.0778851	0.559235	0.0747142	0.838633	0.0379329	0.141168	0.461025	0.419538	0.0859431	0.698901	0.0421918	0.882675	0.0425113
0.279801	0.0835749	0.00296851	0.652719	0.279805	0.0841942	0.441574	0.090424	0.55931	0.0866115	0.838671	0.0441333	0.141629	0.528378	0.419624	0.0984111	0.698943	0.0485961	0.882717	0.0487431
0.279884	0.094689	0.00360584	0.714647	0.279889	0.0952642	0.441664	0.102904	0.559396	0.0984677	0.838715	0.0503818	0.142153	0.594383	0.419722	0.110896	0.698991	0.0549594	0.882766	0.0549812
0.279977	0.105784	0.00430017	0.774929	0.279983	0.106418	0.441765	0.115413	0.559494	0.110388	0.838765	0.0566532	0.142737	0.658936	0.419831	0.123341	0.699046	0.0613872	0.88282	0.0611585
0.280081	0.116915	0.00504983	0.833457	0.280087	0.117519	0.441879	0.127906	0.559602	0.12229	0.838821	0.0628972	0.14338	0.721906	0.419952	0.135781	0.699106	0.0677973	0.88288	0.0673608
0.280195	0.128045	0.00585323	0.890161	0.280202	0.128589	0.442004	0.140369	0.559721	0.134156	0.838882	0.0691597	0.144082	0.783173	0.420084	0.148209	0.699172	0.0741724	0.882945	0.073613
0.28032	0.139098	0.00670855	0.944975	0.280327	0.139743	0.44214	0.152843	0.559852	0.146023	0.838949	0.0753857	0.14484	0.842645	0.420228	0.160613	0.699244	0.0805504	0.883017	0.0798186
0.280455	0.150217	0.00761409	0.997914	0.280462	0.150844	0.442288	0.165266	0.559994	0.157891	0.839023	0.0816123	0.145652	0.900359	0.420383	0.173044	0.699322	0.0869343	0.883094	0.0860042
0.2806	0.161323	0.00856805	1.04893	0.280608	0.161914	0.442448	0.177734	0.560146	0.169762	0.839101	0.0878398	0.146517	0.956241	0.42055	0.185455	0.699406	0.0933301	0.883177	0.0922231
0.280755	0.172401	0.00956866	1.09809	0.280764	0.172993	0.44262	0.190146	0.56031	0.181565	0.839186	0.0940693	0.147313	1.00342	0.420729	0.197826	0.699496	0.0997497	0.883266	0.0984353
0.280921	0.183499	0.0106142	1.14536	0.28093	0.184092	0.442803	0.202519	0.560485	0.193379	0.839277	0.100303	0.148021	1.04251	0.420919	0.21019	0.699592	0.106143	0.883361	0.104634
0.281097	0.194562	0.0117029	1.19068	0.281107	0.195158	0.442997	0.214886	0.56067	0.205216	0.839373	0.106544	0.148627	1.07401	0.42112	0.22254	0.699694	0.112486	0.883461	0.110806
0.281284	0.205628	0.0128329	1.23421	0.281294	0.20623	0.443203	0.227244	0.560867	0.217023	0.839475	0.112801	0.149119	1.09839	0.421334	0.234862	0.699801	0.118872	0.883567	0.116998
0.28148	0.216701	0.0140027	1.27595	0.281491	0.217314	0.44342	0.239581	0.561075	0.228774	0.839583	0.119015	0.149487	1.11607	0.421558	0.247201	0.699915	0.125271	0.883679	0.12323
0.281687	0.227787	0.0152105	1.31585	0.281699	0.228349	0.443649	0.251877	0.561293	0.240556	0.839697	0.125219	0.149726	1.12724	0.421794	0.259501	0.700035	0.131625	0.883797	0.129394
0.281905	0.238826	0.0164547	1.35405	0.281917	0.239433	0.44389	0.264164	0.561523	0.252328	0.839817	0.131474	0.150074	1.14311	0.422042	0.271796	0.70016	0.138033	0.88392	0.135571
0.282132	0.249845	0.0177336	1.39059	0.282145	0.250468	0.444142	0.276435	0.561763	0.264006	0.839942	0.137685	0.150457	1.16013	0.422301	0.284082	0.700292	0.144404	0.884049	0.141772
0.28237	0.260895	0.0190459	1.42553	0.282383	0.261479	0.444405	0.288671	0.562015	0.275719	0.840073	0.143883	0.150987	1.18283	0.422571	0.296276	0.70043	0.150775	0.884184	0.147948
0.282618	0.271938	0.02039	1.45885	0.282632	0.272515	0.44468	0.300838	0.562277	0.287424	0.84021	0.150124	0.151672	1.21096	0.422853	0.308506	0.700573	0.157144	0.884325	0.154148
0.282877	0.282962	0.0217643	1.4907	0.282891	0.283527	0.444965	0.313014	0.56255	0.299116	0.840353	0.156309	0.152522	1.24399	0.423146	0.320733	0.700722	0.16351	0.884471	0.160321
0.283146	0.293952	0.0231677	1.52108	0.283161	0.294565	0.445263	0.325207	0.562835	0.310781	0.840501	0.162527	0.153547	1.28146	0.42345	0.332884	0.700878	0.169871	0.884624	0.166444
0.283425	0.304944	0.0245987	1.55006	0.28344	0.30558	0.445571	0.33729	0.56313	0.322392	0.840656	0.168737	0.154761	1.32291	0.423766	0.345028	0.701039	0.176219	0.884782	0.172609
0.283714	0.315944	0.0260561	1.57775	0.28373	0.316552	0.445891	0.34937	0.563435	0.33397	0.840816	0.17493	0.156013	1.36261	0.424093	0.357156	0.701206	0.182618	0.884945	0.178787
0.284013	0.326956	0.0275386	1.60414	0.28403	0.327509	0.446222	0.361445	0.563752	0.345553	0.840982	0.181165	0.1573	1.40059	0.424432	0.369256	0.701379	0.188969	0.885115	0.184917
0.284323	0.33792	0.0290452	1.62931	0.2843	0.337113	0.446565	0.373437	0.564079	0.357146	0.841153	0.187336	0.158622	1.43694	0.424781	0.381296	0.701558	0.195301	0.88529	0.191098
0.284643	0.348864	0.0305747	1.65328	0.284536	0.345219	0.446918	0.385411	0.564417	0.368688	0.841331	0.193525	0.159978	1.4717	0.425142	0.393365	0.701743	0.201664	0.885471	0.197235
0.284973	0.359837	0.0321259	1.67616	0.284735	0.351984	0.447283	0.397345	0.564766	0.380198	0.841514	0.199751	0.161365	1.50497	0.425514	0.405418	0.701934	0.208019	0.885657	0.203356
0.285314	0.370796	0.033698	1.69798	0.284896	0.357263	0.447659	0.409275	0.565126	0.391646	0.841703	0.205904	0.162782	1.53674	0.425898	0.417365	0.702131	0.214358	0.88585	0.209519
0.285664	0.381729	0.0352899	1.71876	0.285015	0.361326	0.448046	0.421124	0.565496	0.403117	0.841898	0.212058	0.164228	1.56705	0.426292	0.429321	0.702333	0.220736	0.886048	0.21562
0.286025	0.392609	0.0369007	1.73865	0.285093	0.363806	0.448443	0.432957	0.565877	0.41456	0.842098	0.218287	0.165702	1.59608	0.426698	0.441296	0.702542	0.227046	0.886252	0.221743
0.286396	0.403529	0.0385297	1.75756	0.285205	0.367239	0.448852	0.444757	0.566269	0.425947	0.842304	0.224446	0.167202	1.62378	0.427114	0.45316	0.702757	0.233369	0.886461	0.227909
0.286777	0.414455	0.0401758	1.7756	0.285327	0.371272	0.449272	0.456491	0.566671	0.437368	0.842516	0.230612	0.168728	1.65019	0.427542	0.465022	0.702977	0.239714	0.886676	0.234017
0.287168	0.425322	0.0418383	1.79285	0.285497	0.376577	0.449703	0.468242	0.567084	0.44871	0.842734	0.236791	0.170277	1.67548	0.427981	0.476881	0.703203	0.246034	0.886897	0.240079
0.287569	0.436215	0.0435165	1.80927	0.285714	0.383225	0.450145	0.479878	0.567507	0.45997	0.842958	0.242924	0.17185	1.69959	0.428431	0.48866	0.703435	0.252374	0.887124	0.246199
0.287981	0.447088	0.0452097	1.82497	0.285982	0.391346	0.450597	0.491504	0.567941	0.471283	0.843187	0.249111	0.173444	1.72263	0.428891	0.500428	0.703673	0.258682	0.887356	0.252285
0.288403	0.457921	0.0469172	1.83996	0.286304	0.400867	0.451061	0.503111	0.568385	0.482557	0.843422	0.255259	0.17506	1.74466	0.429363	0.51217	0.703917	0.264999	0.887594	0.258378
0.288834	0.468747	0.0486383	1.85426	0.286682	0.41174	0.451535	0.514606	0.56884	0.493751	0.843662	0.261402	0.176695	1.76564	0.429846	0.523864	0.704167	0.271334	0.887837	0.264485
0.289276	0.479559	0.0503724	1.86792	0.287071	0.422633	0.452019	0.526096	0.569305	0.504935	0.843909	0.267537	0.17835	1.78576	0.430339	0.535532	0.704423	0.277633	0.888087	0.270546
0.289728	0.490418	0.0521189	1.88097	0.28747	0.433536	0.452515	0.537579	0.569781	0.516095	0.844161	0.273654	0.180023	1.80497	0.430844	0.547149	0.704685	0.283931	0.888341	0.27659
0.29019	0.501221	0.0538774	1.89343	0.287879	0.444408	0.453021	0.548971	0.570267	0.527211	0.844419	0.27981	0.181713	1.8233	0.431292	0.557247	0.704952	0.290229	0.888602	0.282672
0.290662	0.511988	0.0556471	1.90533	0.288298	0.455263	0.453538	0.560331	0.570763	0.538308	0.844682	0.285968	0.18342	1.84084	0.431681	0.565886	0.705225	0.296527	0.888868	0.288758
0.291144	0.522756	0.0574277	1.91674	0.288727	0.466111	0.454065	0.571623	0.57127	0.549371	0.844952	0.292059	0.185143	1.85764	0.432007	0.572934	0.705505	0.302823	0.88914	0.294776
0.291636	0.533525	0.0592188	1.92762	0.289166	0.476918	0.454533	0.58142	0.571787	0.560364	0.845227	0.298163	0.186882	1.87369	0.432267	0.578552	0.70579	0.309116	0.889417	0.300807
0.292138	0.544296	0.0610196	1.93804	0.289616	0.487742	0.454939	0.58974	0.572314	0.571364	0.845507	0.30429	0.188635	1.88904	0.43246	0.582706	0.706081	0.315403	0.889701	0.306863
0.29265	0.554998	0.0628301	1.94804	0.290075	0.498537	0.455278	0.59659	0.572851	0.582303	0.845794	0.310393	0.190402	1.90374	0.432585	0.585261	0.706377	0.321679	0.889989	0.312896
0.293172	0.565709	0.0646496	1.95755	0.290545	0.509318	0.455549	0.602108	0.573399	0.593196	0.846086	0.316519	0.192182	1.9178	0.432764	0.589051	0.70668	0.327933	0.890284	0.318882
0.293704	0.576437	0.0664778	1.96669	0.291024	0.520128	0.45575	0.606115	0.573957	0.604068	0.846383	0.322619	0.193976	1.93127	0.432961	0.593177	0.706988	0.334214	0.890583	0.324922
0.294246	0.587128	0.0683143	1.97545	0.291514	0.53088	0.45588	0.608618	0.574525	0.614899	0.846687	0.328666	0.195781	1.9442	0.433231	0.598637	0.707303	0.340477	0.890889	0.330922
0.294798	0.597815	0.0701588	1.98382	0.292014	0.541639	0.456067	0.612189	0.575103	0.625721	0.846996	0.334755	0.197598	1.95656	0.433575	0.605695	0.707623	0.346704	0.8912	0.336917
0.29536	0.608496	0.0720109	1.99183	0.292523	0.552365	0.456271	0.61614	0.575691	0.636452	0.847311	0.340853	0.199427	1.96845	0.433998	0.614194	0.707949	0.353006	0.891517	0.342901
0.295932	0.619166	0.0738704	1.99952	0.293043	0.563075	0.456551	0.621554	0.576289	0.647148	0.847631	0.346897	0.201266	1.97981	0.4345	0.624096	0.708281	0.359238	0.891839	0.348864
0.296514	0.629811	0.0757368	2.0069	0.293572	0.573813	0.456909	0.628316	0.576897	0.657847	0.847957	0.35298	0.203116	1.9907	0.435087	0.635412	0.708618	0.365476	0.892167	0.354857
0.297106	0.640409	0.07761	2.01398	0.294112	0.584529	0.457346	0.63652	0.577514	0.668477	0.848289	0.359066	0.204976	2.00116	0.435684	0.64671	0.708962	0.371727	0.8925	0.360837
0.297707	0.651056	0.0794896	2.02074	0.294662	0.595197	0.457867	0.646079	0.578142	0.679045	0.848626	0.365085	0.206845	2.01122	0.436292	0.657926	0.709311	0.37793	0.892839	0.366791
0.298319	0.661659	0.0813754	2.02722	0.295221	0.605841	0.458474	0.656976	0.578697	0.688233	0.848969	0.371119	0.208723	2.02086	0.43691	0.669137	0.709666	0.384185	0.893184	0.372694
0.29894	0.672244	0.0832672	2.03346	0.295791	0.616547	0.459091	0.667809	0.579176	0.696057	0.849318	0.37718	0.210611	2.03012	0.437539	0.680345	0.710027	0.390394	0.893534	0.378639
0.299572	0.682866	0.0851646	2.03947	0.29637	0.627209	0.459719	0.678644	0.579576	0.702522	0.849672	0.383223	0.212506	2.03903	0.438178	0.691442	0.710393	0.396588	0.893889	0.384597
0.300213	0.693418	0.0870675	2.04521	0.296959	0.637777	0.460356	0.689409	0.579896	0.707677	0.850032	0.389229	0.21441	2.04755	0.438827	0.702521	0.710766	0.402824	0.89425	0.390507
0.300864	0.703975	0.0889756	2.05068	0.297558	0.648408	0.461003	0.700065	0.580132	0.711229	0.850397	0.395237	0.216322	2.0558	0.439487	0.713553	0.711144	0.408996	0.894617	0.396395
0.301525	0.714543	0.0908887	2.05599	0.298168	0.65907	0.46166	0.710739	0.580283	0.713606	0.850768	0.401247	0.218241	2.0637	0.440157	0.724526	0.711528	0.415187	0.894989	0.402311
0.302195	0.725057	0.0928067	2.0611	0.298787	0.669675	0.462328	0.72135	0.580502	0.717144	0.851145	0.40726	0.220167	2.07131	0.440837	0.735505	0.711918	0.421418	0.895367	0.408211
0.302876	0.735612	0.0947293	2.06598	0.299415	0.680214	0.463005	0.731819	0.580742	0.720825	0.851527	0.413281	0.222101	2.07863	0.441528	0.746415	0.712313	0.42758	0.89575	0.414078
0.303566	0.746175	0.0966564	2.07069	0.300054	0.690793	0.463691	0.742327	0.581069	0.725927	0.851915	0.419244	0.224041	2.08566	0.442228	0.757253	0.712714	0.433752	0.896138	0.419953
0.304175	0.755292	0.0985878	2.0752	0.300703	0.701393	0.464388	0.752781	0.581486	0.732291	0.852308	0.425236	0.225987	2.09244	0.442939	0.768056	0.713121	0.439944	0.896532	0.425843
0.304701	0.76315	0.100523	2.07952	0.301361	0.71193	0.465094	0.763099	0.581996	0.739939	0.852707	0.431215	0.22794	2.09897	0.443659	0.77884	0.713534	0.446103	0.896932	0.43169
0.30514	0.769619	0.102463	2.08371	0.302029	0.722508	0.46581	0.773421	0.5826	0.748887	0.853112	0.437168	0.229898	2.10528	0.44439	0.789542	0.713953	0.452269	0.897337	0.437526
0.305489	0.774641	0.104406	2.08769	0.302707	0.733034	0.466535	0.783672	0.583303	0.759171	0.853522	0.44314	0.231862	2.11133	0.44513	0.800204	0.714322	0.457605	0.897747	0.443337
0.305747	0.778506	0.106353	2.09155	0.303395	0.743534	0.46727	0.793852	0.584015	0.769403	0.853938	0.44908	0.233832	2.11717	0.445881	0.810844	0.71464	0.462211	0.898163	0.449174
0.305913	0.780926	0.108303	2.09531	0.304093	0.754094	0.468014	0.803995	0.584736	0.779573	0.854359	0.455026	0.235808	2.12277	0.446641	0.821438	0.714906	0.465984	0.898584	0.454989
0.306153	0.78421	0.110257	2.09887	0.3048	0.764611	0.468768	0.814084	0.585467	0.789674	0.854785	0.460985	0.237788	2.1282	0.447412	0.831972	0.715118	0.468854	0.899011	0.460759
0.306415	0.787992	0.112214	2.10226	0.305518	0.775106	0.469531	0.824109	0.586208	0.799743	0.855218	0.466898	0.239773	2.13348	0.448192	0.842475	0.715274	0.471097	0.899443	0.466587
0.306772	0.793173	0.114175	2.1056	0.306245	0.785627	0.470304	0.834029	0.586958	0.809757	0.855656	0.47279	0.241763	2.13854	0.448981	0.852891	0.715374	0.472572	0.89988	0.472383
0.307228	0.799609	0.115885	2.10838	0.306982	0.796125	0.471085	0.843932	0.587717	0.819781	0.856099	0.478717	0.243758	2.14337	0.449781	0.863262	0.715519	0.474547	0.900323	0.478115
0.307784	0.807408	0.117345	2.11063	0.307728	0.80661	0.471876	0.853791	0.588485	0.829737	0.856548	0.484637	0.245757	2.14806	0.45059	0.873648	0.715678	0.476711	0.900771	0.483866
0.308443	0.816514	0.118554	2.11249	0.308485	0.81709	0.472676	0.863591	0.589263	0.839586	0.857002	0.490544	0.247761	2.15264	0.451409	0.883931	0.715894	0.479742	0.901224	0.489655
0.309209	0.827039	0.11951	2.11399	0.309251	0.827603	0.473486	0.873325	0.59005	0.849418	0.857462	0.496425	0.249769	2.15702	0.452237	0.8942	0.71617	0.483483	0.901683	0.495374
0.309985	0.837539	0.120214	2.11502	0.310027	0.838133	0.474304	0.882953	0.590846	0.859241	0.857927	0.502256	0.25178	2.16122	0.453075	0.904388	0.716506	0.487985	0.902148	0.501099
0.31077	0.848062	0.120664	2.11568	0.310812	0.848598	0.475131	0.892564	0.591651	0.868986	0.858398	0.50813	0.253796	2.16534	0.453922	0.914535	0.716904	0.493317	0.902617	0.506837
0.311565	0.85856	0.121312	2.11657	0.311608	0.859104	0.475967	0.902131	0.592465	0.878693	0.858874	0.51402	0.255815	2.16926	0.454779	0.924663	0.717367	0.499441	0.903092	0.512527
0.31237	0.869009	0.122017	2.11758	0.312413	0.869594	0.476812	0.911602	0.593288	0.888343	0.859293	0.519145	0.257838	2.17305	0.455645	0.934671	0.717835	0.505542	0.903572	0.518194
0.313184	0.879544	0.122975	2.11895	0.313228	0.880112	0.477666	0.921061	0.59412	0.89793	0.859654	0.523487	0.259864	2.17678	0.456521	0.944692	0.718309	0.511632	0.904058	0.523888
0.314009	0.890085	0.124188	2.12055	0.314053	0.890645	0.478528	0.930442	0.594961	0.907483	0.859955	0.527029	0.261894	2.18033	0.457406	0.954682	0.718788	0.517717	0.904548	0.529563
0.314843	0.900592	0.125657	2.12256	0.314888	0.901148	0.479399	0.93971	0.595811	0.916984	0.860194	0.529849	0.263927	2.18375	0.4583	0.964585	0.719273	0.523799	0.90498	0.534513
0.315687	0.911156	0.127381	2.12473	0.315733	0.91171	0.480279	0.948958	0.59667	0.926459	0.86037	0.531968	0.265963	2.18708	0.459203	0.974444	0.719764	0.529879	0.905352	0.538673
0.316541	0.921711	0.129362	2.12723	0.316587	0.922301	0.481168	0.95816	0.597538	0.935884	0.860484	0.533363	0.268003	2.19028	0.460116	0.984244	0.720261	0.535922	0.905661	0.542182
0.317404	0.932262	0.131345	2.12961	0.317451	0.93287	0.482065	0.967265	0.598414	0.945247	0.860647	0.53524	0.270045	2.19338	0.461037	0.994014	0.720763	0.541947	0.905907	0.544847
0.318278	0.942848	0.13333	2.1319	0.318325	0.943427	0.48297	0.976358	0.599299	0.954506	0.860826	0.537235	0.27209	2.19639	0.461968	1.00373	0.721271	0.547999	0.906089	0.546888
0.319161	0.953487	0.135317	2.13411	0.319209	0.954016	0.483884	0.985373	0.600193	0.963787	0.86107	0.540138	0.274137	2.19929	0.462908	1.01339	0.721784	0.554064	0.906205	0.548291
0.320054	0.964117	0.137307	2.1362	0.320103	0.964658	0.484806	0.994312	0.601095	0.973005	0.86138	0.543709	0.276188	2.20206	0.463856	1.02298	0.722303	0.560063	0.906373	0.550098
0.320958	0.974742	0.139298	2.13827	0.321007	0.975361	0.485737	1.00321	0.602006	0.982118	0.861757	0.548	0.278241	2.2048	0.464814	1.03257	0.722828	0.566102	0.906557	0.552041
0.321871	0.985438	0.141291	2.14026	0.32192	0.98606	0.486676	1.01206	0.602925	0.991252	0.862205	0.553072	0.280296	2.20741	0.46578	1.04209	0.723358	0.572125	0.906807	0.554762
0.322794	0.996206	0.143286	2.14214	0.322844	0.996756	0.487623	1.02084	0.603853	1.00032	0.862722	0.558853	0.282354	2.20993	0.466756	1.05154	0.723894	0.578102	0.907126	0.558218
0.323727	1.00697	0.145283	2.14395	0.323778	1.00752	0.488578	1.02951	0.604789	1.00933	0.863246	0.564637	0.284414	2.21236	0.46774	1.06099	0.724435	0.584094	0.907513	0.562408
0.32467	1.01774	0.147281	2.14574	0.324721	1.01836	0.489541	1.03817	0.605734	1.0183	0.863775	0.570385	0.286476	2.21471	0.468733	1.07036	0.724982	0.590093	0.907972	0.567228
0.325623	1.02858	0.149281	2.14744	0.325675	1.02917	0.490512	1.04678	0.606686	1.02718	0.864309	0.576189	0.288541	2.21702	0.469734	1.07966	0.725535	0.596095	0.908503	0.572831
0.326587	1.03949	0.151283	2.14905	0.326639	1.04006	0.491492	1.05534	0.607648	1.03605	0.864848	0.581948	0.290608	2.21924	0.470744	1.08893	0.726093	0.602026	0.909039	0.578415
0.32756	1.05044	0.153286	2.15063	0.327613	1.05104	0.492479	1.06383	0.608617	1.04484	0.865393	0.587647	0.292676	2.22133	0.471763	1.09818	0.726657	0.607994	0.909581	0.583954
0.328544	1.06141	0.15529	2.15215	0.328598	1.06202	0.493474	1.07221	0.609594	1.0536	0.865943	0.593389	0.294747	2.22337	0.472791	1.10738	0.727226	0.613981	0.910128	0.58947
0.329538	1.07246	0.157296	2.15361	0.329592	1.07308	0.494477	1.08058	0.61058	1.06233	0.866499	0.599154	0.296819	2.22541	0.473827	1.11648	0.727801	0.619905	0.910679	0.595011
0.330543	1.08363	0.159303	2.15504	0.330597	1.08421	0.495487	1.0889	0.611574	1.07095	0.86706	0.604856	0.298894	2.22732	0.474871	1.12554	0.728381	0.625832	0.911236	0.600565
0.331558	1.09481	0.161312	2.15637	0.331613	1.09542	0.496506	1.09712	0.612576	1.07954	0.867626	0.610563	0.30097	2.22915	0.475924	1.13461	0.728967	0.631763	0.911798	0.606052
0.332583	1.10608	0.163321	2.15766	0.332638	1.1067	0.497532	1.10534	0.613586	1.08808	0.868197	0.616273	0.303047	2.23094	0.476985	1.14357	0.729558	0.637694	0.912366	0.611542
0.333619	1.11746	0.165332	2.15896	0.333675	1.11808	0.498565	1.11347	0.614603	1.0966	0.868774	0.621911	0.305127	2.23264	0.478055	1.15249	0.730155	0.64359	0.912938	0.616997
0.334665	1.12891	0.167344	2.16017	0.334722	1.12953	0.499607	1.12153	0.615629	1.10504	0.869356	0.627587	0.307208	2.2343	0.479133	1.16138	0.730757	0.649467	0.913515	0.622471
