Sym0		Asym0		Sym1		Sym2		Sym3		Sym4		Asym1		Asym2		Asym3		Asym4	
458  Points		541  Points		458  Points		407  Points		370  Points		280  Points		481  Points		422  Points		371  Points		280  Points	
Freq (MHz)	Vgr (m/ms)	Freq (MHz)	Vgr (m/ms)	Freq (MHz)	Vgr (m/ms)	Freq (MHz)	Vgr (m/ms)	Freq (MHz)	Vgr (m/ms)	Freq (MHz)	Vgr (m/ms)	Freq (MHz)	Vgr (m/ms)	Freq (MHz)	Vgr (m/ms)	Freq (MHz)	Vgr (m/ms)	Freq (MHz)	Vgr (m/ms)
0.279507	-0.00729107	0.000132784	0.176887	0.279507	-0.00700148	0.356458	0.0172872	0.559017	0.00733234	0.838526	0.00395439	0.139755	0.0438284	0.419264	0.0103366	0.69877	-0.0118233	0.712916	0.0179505
0.2795	-0.00992928	0.000297589	0.211769	0.2795	-0.00959188	0.356474	0.0321724	0.559024	0.0118737	0.838529	0.0062553	0.139796	0.0791878	0.419274	0.0148699	0.698759	-0.0179348	0.712933	0.0316757
0.279488	-0.015134	0.000527392	0.281186	0.279489	-0.0147996	0.356518	0.0619598	0.55904	0.0208836	0.838537	0.0108143	0.139902	0.14967	0.419292	0.0240023	0.698737	-0.0300438	0.712975	0.0590818
0.279472	-0.0202699	0.000821547	0.349852	0.279473	-0.0199417	0.35659	0.0916519	0.559063	0.0298214	0.83855	0.015318	0.140074	0.219737	0.419319	0.033185	0.698703	-0.0417374	0.713043	0.0862086
0.27945	-0.0252684	0.0011793	0.417605	0.279452	-0.0249523	0.356689	0.121227	0.559095	0.0388345	0.838566	0.0198576	0.140312	0.289265	0.419354	0.0423219	0.698659	-0.052893	0.713136	0.11285
0.279424	-0.0300651	0.00159971	0.484264	0.279426	-0.0297734	0.356815	0.150713	0.559136	0.0478521	0.838587	0.0243958	0.140613	0.357935	0.419398	0.0514404	0.698604	-0.0634856	0.713253	0.138886
0.279394	-0.0347513	0.00208168	0.549612	0.279396	-0.0344351	0.35697	0.180022	0.559184	0.0568052	0.838611	0.0289313	0.140979	0.425621	0.41945	0.0605953	0.698541	-0.0733183	0.713395	0.164225
0.27936	-0.0392164	0.00262385	0.613585	0.279362	-0.0389245	0.357151	0.209124	0.559241	0.0657759	0.838641	0.0334612	0.141407	0.49222	0.419511	0.0697498	0.698468	-0.0823635	0.713559	0.188829
0.279321	-0.0433859	0.00322502	0.676052	0.279324	-0.0431427	0.357359	0.238032	0.559307	0.0747818	0.838674	0.03798	0.141896	0.557522	0.41958	0.0789037	0.698387	-0.0905662	0.713746	0.212548
0.279279	-0.0473304	0.0038836	0.7369	0.279282	-0.0471111	0.357594	0.266697	0.559381	0.0837847	0.838711	0.0425497	0.142445	0.621402	0.419658	0.0880562	0.698299	-0.0978896	0.713955	0.235378
0.279233	-0.0510447	0.00459816	0.79612	0.279236	-0.0508	0.357856	0.295095	0.559463	0.0927817	0.838753	0.047075	0.143054	0.683831	0.419744	0.0972059	0.698205	-0.104333	0.714185	0.25738
0.279184	-0.0543716	0.00536708	0.853549	0.279187	-0.0541495	0.358144	0.323181	0.559554	0.101767	0.838799	0.0515845	0.14372	0.744601	0.419839	0.10635	0.698105	-0.109896	0.714435	0.278459
0.279132	-0.0573634	0.00618865	0.909153	0.279135	-0.0571863	0.358458	0.350935	0.559653	0.110729	0.838849	0.0561359	0.144441	0.803665	0.419942	0.115483	0.698	-0.114577	0.714704	0.298644
0.279077	-0.0600511	0.00706119	0.962941	0.279081	-0.0598907	0.358798	0.378392	0.55976	0.119717	0.838904	0.0606975	0.145217	0.861003	0.420054	0.124666	0.697891	-0.118373	0.714991	0.317993
0.27902	-0.0623502	0.00798298	1.01485	0.279024	-0.0622235	0.359163	0.405474	0.559876	0.128684	0.838962	0.0652064	0.146046	0.916499	0.420174	0.133805	0.697779	-0.121423	0.715296	0.336478
0.278961	-0.0643118	0.00895225	1.06491	0.278965	-0.064179	0.359554	0.432171	0.56	0.137683	0.839025	0.0697565	0.146925	0.970143	0.420303	0.142927	0.697665	-0.123714	0.715618	0.354184
0.2789	-0.065818	0.00996733	1.11311	0.278904	-0.0657464	0.359969	0.458466	0.560132	0.146671	0.839092	0.0743157	0.147853	1.02191	0.420441	0.15209	0.697549	-0.125221	0.715956	0.37114
0.278838	-0.0669261	0.0110264	1.1594	0.278842	-0.0669036	0.360408	0.484397	0.560273	0.15564	0.839164	0.0788198	0.148829	1.07184	0.420587	0.16126	0.697432	-0.126036	0.71631	0.387399
0.278775	-0.0676774	0.0121278	1.20387	0.278779	-0.0676067	0.360871	0.50989	0.560422	0.164641	0.839239	0.0833604	0.149851	1.11991	0.420741	0.170444	0.697314	-0.126276	0.716678	0.403
0.278712	-0.0679349	0.0132697	1.24659	0.278716	-0.0679141	0.361358	0.534948	0.56058	0.173635	0.839319	0.0879004	0.150916	1.16609	0.420904	0.179583	0.697196	-0.125877	0.717061	0.417941
0.278649	-0.0677907	0.0144506	1.2875	0.278653	-0.0677967	0.361868	0.55965	0.560746	0.182615	0.839403	0.0924394	0.151879	1.20488	0.421076	0.188707	0.697079	-0.124932	0.717457	0.432369
0.278586	-0.0672094	0.0156688	1.32662	0.27859	-0.0672688	0.362401	0.583859	0.56092	0.191565	0.839491	0.0969765	0.152724	1.2369	0.421256	0.197874	0.696963	-0.123482	0.717867	0.446211
0.278523	-0.0661932	0.0169226	1.36413	0.278527	-0.0662862	0.362956	0.607593	0.561103	0.20053	0.839584	0.10151	0.153439	1.26267	0.421444	0.207051	0.696849	-0.121534	0.718289	0.45954
0.278462	-0.0647468	0.0182107	1.40004	0.278466	-0.0648338	0.363533	0.630892	0.561294	0.209524	0.83968	0.106035	0.154015	1.28248	0.421642	0.216176	0.696737	-0.119177	0.718723	0.472501
0.278403	-0.0628062	0.0195315	1.43429	0.278407	-0.0629544	0.364132	0.653759	0.561493	0.218503	0.839781	0.110617	0.154444	1.29679	0.421847	0.225345	0.696627	-0.116439	0.719169	0.484946
0.278345	-0.060463	0.0208834	1.46706	0.278349	-0.0606605	0.364751	0.676202	0.561701	0.227454	0.839886	0.115168	0.154722	1.30587	0.422062	0.234528	0.69652	-0.113307	0.719626	0.497018
0.27829	-0.0576809	0.0222652	1.49838	0.278294	-0.0579036	0.365392	0.698164	0.561917	0.236418	0.839996	0.119655	0.155123	1.31868	0.422284	0.243666	0.696416	-0.109825	0.720095	0.508785
0.278238	-0.0544605	0.0236754	1.5282	0.278241	-0.0546603	0.366052	0.719675	0.562141	0.245412	0.840109	0.124236	0.155564	1.33242	0.422516	0.252859	0.696315	-0.106085	0.720575	0.520162
0.278189	-0.0508028	0.0251128	1.55673	0.278192	-0.0510303	0.366733	0.740726	0.562374	0.254391	0.840227	0.128782	0.156172	1.35077	0.422755	0.262017	0.696218	-0.102048	0.721064	0.531268
0.278143	-0.0467101	0.0265762	1.58397	0.278146	-0.0469929	0.367433	0.761366	0.562616	0.263341	0.840349	0.133333	0.156951	1.37335	0.423004	0.271177	0.696125	-0.0977092	0.721564	0.542056
0.278102	-0.0421867	0.0280644	1.60996	0.278104	-0.0425069	0.368152	0.781554	0.562865	0.272304	0.840476	0.137894	0.157911	1.39985	0.423261	0.280342	0.696036	-0.0931326	0.722074	0.552572
0.278064	-0.0372417	0.0295762	1.63477	0.278067	-0.0375632	0.368889	0.801275	0.563123	0.281295	0.840606	0.142403	0.15906	1.42987	0.423526	0.289516	0.695952	-0.0883739	0.722594	0.562911
0.278032	-0.0318925	0.0311106	1.65839	0.278034	-0.0322169	0.369645	0.820575	0.563389	0.290269	0.840741	0.146952	0.160408	1.46293	0.4238	0.29871	0.695872	-0.0833976	0.723123	0.572968
0.278005	-0.0261015	0.0326664	1.68094	0.278007	-0.0265046	0.370418	0.839474	0.563664	0.299207	0.84088	0.15151	0.161786	1.49451	0.424083	0.307868	0.695796	-0.0782057	0.723662	0.582829
0.277984	-0.0199393	0.0342428	1.70247	0.277985	-0.0203536	0.371209	0.857935	0.563947	0.308147	0.841023	0.156085	0.163193	1.52469	0.424374	0.31703	0.695726	-0.0728756	0.724209	0.592515
0.277968	-0.013401	0.0358388	1.72304	0.277969	-0.0138378	0.372017	0.875961	0.564238	0.317093	0.841171	0.160619	0.164627	1.55344	0.424674	0.326198	0.69566	-0.0674156	0.724766	0.602002
0.277959	-0.00640358	0.0374535	1.74263	0.27796	-0.00782245	0.372841	0.89363	0.564538	0.326049	0.841323	0.165148	0.166087	1.58089	0.424982	0.335379	0.6956	-0.0617691	0.725331	0.611306
0.277956	0.000926226	0.039086	1.76132	0.277956	-0.00246454	0.373682	0.910875	0.564846	0.335026	0.841479	0.169737	0.167573	1.60711	0.425299	0.344586	0.695545	-0.0559692	0.725905	0.620466
0.27796	0.00862783	0.0407355	1.77922	0.277956	0.00207964	0.374539	0.927716	0.565162	0.34397	0.841639	0.174301	0.169082	1.63211	0.425624	0.353771	0.695496	-0.0500824	0.726487	0.629485
0.277972	0.0167068	0.0424014	1.79626	0.277958	0.00588731	0.375411	0.944184	0.565487	0.352922	0.841804	0.178816	0.170614	1.65593	0.425958	0.362913	0.695452	-0.0440947	0.727078	0.638368
0.277991	0.0251011	0.0440827	1.81254	0.27796	0.00858679	0.376298	0.960275	0.56582	0.361892	0.841972	0.183376	0.172168	1.67865	0.4263	0.372115	0.695414	-0.0379789	0.727677	0.647125
0.278019	0.0339063	0.0457788	1.82812	0.277962	0.0103158	0.3772	0.975978	0.566161	0.370823	0.842145	0.187956	0.173742	1.70037	0.426651	0.38129	0.695381	-0.031753	0.728284	0.655703
0.278055	0.0430206	0.0474892	1.84294	0.277966	0.0130902	0.378117	0.991344	0.566511	0.379749	0.842323	0.192503	0.175336	1.72108	0.427011	0.390485	0.695355	-0.0254536	0.728899	0.664217
0.278099	0.0524601	0.049213	1.85712	0.277971	0.0160491	0.379047	1.00633	0.566868	0.388666	0.842504	0.197054	0.176949	1.74077	0.427379	0.39972	0.695334	-0.0190804	0.729522	0.672676
0.278152	0.0622571	0.0509497	1.8707	0.277979	0.0200087	0.379992	1.02099	0.567235	0.397636	0.84269	0.201616	0.17858	1.75956	0.427755	0.408889	0.695319	-0.0126328	0.730152	0.68095
0.278215	0.0723296	0.0526988	1.88364	0.277992	0.0252942	0.38095	1.0353	0.567609	0.406569	0.84288	0.206199	0.180228	1.77752	0.428141	0.41807	0.69531	-0.00610972	0.73079	0.689149
0.278287	0.0827334	0.0544597	1.89605	0.278012	0.0317876	0.381921	1.04927	0.567992	0.415498	0.843074	0.21075	0.181892	1.79466	0.428534	0.427278	0.695308	0.000491156	0.731436	0.69727
0.278369	0.0934335	0.0562319	1.9079	0.278041	0.0396163	0.382905	1.06299	0.568384	0.424421	0.843272	0.215311	0.183572	1.811	0.428937	0.436465	0.695311	0.00710112	0.73209	0.70531
0.278461	0.104433	0.0580148	1.91922	0.278082	0.0489883	0.383902	1.07631	0.568783	0.433333	0.843475	0.219892	0.185267	1.82657	0.429348	0.445685	0.695321	0.0138025	0.732751	0.713261
0.278564	0.11574	0.0598081	1.93006	0.278132	0.0586548	0.384911	1.08933	0.569191	0.442292	0.843682	0.22444	0.186976	1.84145	0.429767	0.454894	0.695337	0.0206134	0.733419	0.721104
0.278677	0.127293	0.0616113	1.94048	0.278191	0.068615	0.385931	1.10211	0.569607	0.451203	0.843893	0.228996	0.188698	1.85564	0.430195	0.464085	0.695359	0.0274238	0.734094	0.728881
0.278801	0.13912	0.063424	1.95039	0.27826	0.0789051	0.386831	1.11297	0.570032	0.46009	0.844109	0.233566	0.190433	1.86917	0.430632	0.473312	0.695388	0.034233	0.734777	0.736598
0.278936	0.151203	0.0652456	1.9599	0.278338	0.0895067	0.387604	1.12209	0.570465	0.469001	0.844329	0.238164	0.192181	1.88213	0.431077	0.482536	0.695423	0.0411131	0.735467	0.744269
0.279083	0.163575	0.067076	1.96902	0.278426	0.100374	0.388249	1.12949	0.570906	0.47796	0.844553	0.242748	0.193941	1.89447	0.431531	0.491756	0.695465	0.0480618	0.736164	0.751847
0.279241	0.176235	0.0689147	1.97773	0.278525	0.111557	0.388761	1.13521	0.571355	0.48687	0.844781	0.2473	0.195711	1.90624	0.431994	0.500968	0.695513	0.0550012	0.736868	0.759385
0.279411	0.189104	0.0707613	1.98609	0.278634	0.123045	0.389139	1.13954	0.571813	0.495753	0.845013	0.251863	0.197493	1.91751	0.432465	0.510163	0.695567	0.0619951	0.737579	0.766844
0.279593	0.202171	0.0726155	1.99408	0.278754	0.134758	0.389382	1.14218	0.572279	0.504658	0.84525	0.256449	0.199284	1.92827	0.432882	0.518211	0.695628	0.0690251	0.738297	0.774217
0.279788	0.21556	0.0744771	2.0018	0.278885	0.146766	0.389733	1.1459	0.572753	0.513533	0.845491	0.261006	0.201086	1.93852	0.433243	0.525079	0.695696	0.0760538	0.739022	0.781568
0.279995	0.229155	0.0763457	2.00916	0.279028	0.15907	0.390115	1.1501	0.573236	0.522419	0.845737	0.265579	0.202897	1.9483	0.433545	0.530792	0.69577	0.0831532	0.739753	0.788871
0.280215	0.242941	0.0782209	2.01621	0.279182	0.171557	0.390636	1.15564	0.573727	0.53133	0.845986	0.270184	0.204716	1.95769	0.433787	0.535218	0.695851	0.0902474	0.740491	0.796079
0.280448	0.257038	0.0801026	2.02297	0.279348	0.184356	0.3913	1.16253	0.574226	0.540216	0.84624	0.27478	0.206545	1.96667	0.433965	0.53854	0.695938	0.0973314	0.741237	0.803246
0.280694	0.271316	0.0819905	2.02947	0.279525	0.197383	0.392107	1.17073	0.574734	0.549126	0.846498	0.279357	0.208381	1.97519	0.43408	0.540681	0.696032	0.104468	0.741988	0.810401
0.280953	0.285808	0.0838843	2.03572	0.279715	0.210635	0.393062	1.18024	0.575249	0.558011	0.846761	0.283897	0.210225	1.98333	0.434246	0.543672	0.696133	0.111637	0.742747	0.81746
0.281226	0.30051	0.0857839	2.04171	0.279918	0.224183	0.394166	1.19088	0.575773	0.566844	0.847027	0.28851	0.212077	1.99114	0.434428	0.547004	0.69624	0.118798	0.743511	0.824473
0.281513	0.315413	0.0876888	2.04747	0.280133	0.237915	0.395281	1.20133	0.576306	0.575722	0.847298	0.293122	0.213935	1.99863	0.434676	0.551482	0.696354	0.125941	0.744283	0.831468
0.281814	0.33057	0.0895991	2.05298	0.280361	0.251848	0.396405	1.21153	0.576846	0.584615	0.847573	0.297658	0.215801	2.00574	0.434993	0.557118	0.696475	0.133122	0.745061	0.838428
0.282129	0.345943	0.0915143	2.05828	0.280602	0.266066	0.397538	1.22143	0.577395	0.593465	0.847853	0.302263	0.217673	2.01252	0.435381	0.564009	0.696602	0.14038	0.745845	0.845315
0.282459	0.361528	0.0934345	2.06338	0.280857	0.280499	0.398681	1.23114	0.577952	0.602304	0.848137	0.306858	0.219551	2.01906	0.435843	0.572059	0.696736	0.147573	0.746636	0.852132
0.282803	0.377316	0.0953592	2.06825	0.281125	0.295113	0.399832	1.24068	0.578517	0.611193	0.848425	0.311435	0.221435	2.02526	0.43638	0.581331	0.696877	0.154781	0.747433	0.858955
0.283162	0.393293	0.0972884	2.07293	0.281407	0.309964	0.400993	1.24999	0.579091	0.620034	0.848717	0.316046	0.223325	2.03115	0.436926	0.590581	0.697025	0.162018	0.748237	0.865716
0.283536	0.409499	0.0992219	2.07745	0.281703	0.325007	0.402162	1.25904	0.579673	0.628854	0.849014	0.320654	0.22522	2.03683	0.43748	0.599821	0.697179	0.169242	0.749046	0.872426
0.283925	0.425945	0.10116	2.08182	0.282013	0.340329	0.403339	1.26793	0.580263	0.637706	0.849314	0.325256	0.22712	2.04224	0.438044	0.609091	0.69734	0.176512	0.749862	0.879108
0.284329	0.442576	0.103101	2.086	0.282337	0.355826	0.404524	1.27662	0.580861	0.646547	0.84962	0.329847	0.229025	2.04736	0.438615	0.618341	0.697508	0.183727	0.750684	0.885733
0.28475	0.459433	0.105047	2.08998	0.282676	0.371485	0.405718	1.28506	0.581467	0.655368	0.849929	0.334413	0.230935	2.0523	0.439196	0.627616	0.697683	0.190981	0.751513	0.892318
0.285186	0.47652	0.106996	2.09383	0.283029	0.387445	0.406919	1.29335	0.582003	0.663027	0.850243	0.339005	0.23285	2.05701	0.439785	0.636905	0.697864	0.198236	0.752347	0.898897
0.285638	0.493776	0.108948	2.09758	0.283398	0.403591	0.408128	1.30149	0.582464	0.669581	0.850561	0.343648	0.234768	2.06145	0.440383	0.646164	0.698052	0.205497	0.753188	0.90539
0.286045	0.509079	0.110904	2.10111	0.283781	0.419904	0.409344	1.30944	0.582849	0.675055	0.850883	0.348246	0.236691	2.06572	0.440989	0.655444	0.698247	0.212767	0.754034	0.911858
0.286401	0.522238	0.112863	2.10453	0.28418	0.436447	0.410568	1.31715	0.583155	0.679384	0.85121	0.352828	0.238618	2.06979	0.441604	0.664735	0.698448	0.219983	0.754887	0.918347
0.286703	0.533144	0.114826	2.10784	0.284594	0.453251	0.411798	1.32474	0.583382	0.682335	0.851541	0.357451	0.240548	2.07366	0.442228	0.674031	0.698657	0.227237	0.755745	0.924734
0.286947	0.54184	0.116538	2.11058	0.285025	0.470259	0.413036	1.33216	0.583527	0.684327	0.851876	0.362082	0.242482	2.07732	0.44286	0.68333	0.698872	0.234495	0.75661	0.931062
0.287128	0.548515	0.118	2.11289	0.285471	0.487478	0.414281	1.33935	0.583737	0.687437	0.852215	0.366658	0.244419	2.08083	0.443501	0.692594	0.699094	0.241759	0.75748	0.93742
0.287245	0.552662	0.11921	2.11474	0.285933	0.504914	0.415532	1.34646	0.583966	0.690588	0.852559	0.371267	0.246359	2.08416	0.44415	0.701913	0.699322	0.249037	0.758357	0.943691
0.287415	0.558433	0.120167	2.11619	0.286411	0.522567	0.41679	1.35338	0.58428	0.694781	0.852907	0.375872	0.248302	2.08729	0.444809	0.711261	0.699558	0.256268	0.759239	0.949934
0.287602	0.565068	0.120871	2.11722	0.286907	0.540513	0.418054	1.3601	0.584679	0.70017	0.853259	0.380468	0.250248	2.09029	0.445476	0.720548	0.6998	0.26348	0.760127	0.956194
0.28786	0.574106	0.121322	2.11779	0.287419	0.558677	0.419324	1.36676	0.585166	0.70671	0.853616	0.385119	0.252197	2.0931	0.446151	0.729843	0.700049	0.270725	0.761021	0.962343
0.288192	0.585451	0.121971	2.11875	0.287948	0.577098	0.420601	1.37324	0.585743	0.714373	0.853977	0.389734	0.254149	2.09579	0.446836	0.739178	0.700304	0.277964	0.76192	0.968487
0.288602	0.599378	0.122676	2.11983	0.288494	0.595793	0.421883	1.37952	0.586412	0.723156	0.854342	0.394349	0.256103	2.09834	0.447529	0.748533	0.700567	0.285192	0.762825	0.974624
0.289095	0.615915	0.123635	2.1211	0.289058	0.614699	0.423171	1.3857	0.58709	0.731942	0.854712	0.398964	0.258059	2.10076	0.448231	0.757861	0.700801	0.291523	0.763736	0.980672
0.289678	0.635162	0.12485	2.12272	0.289639	0.633893	0.424465	1.39175	0.587776	0.740693	0.855086	0.40358	0.260017	2.10299	0.448941	0.767177	0.701004	0.296858	0.764653	0.986689
0.290279	0.654709	0.12632	2.12467	0.290239	0.653414	0.425765	1.39767	0.588471	0.749463	0.855464	0.408199	0.261977	2.10509	0.44966	0.776522	0.701176	0.301326	0.765575	0.992718
0.290898	0.674517	0.128046	2.1269	0.290857	0.673209	0.427069	1.40342	0.589173	0.758206	0.855846	0.412821	0.26394	2.1071	0.450388	0.785882	0.701313	0.304767	0.766502	0.998695
0.291536	0.694638	0.130028	2.12931	0.291494	0.693324	0.42838	1.40903	0.589883	0.766972	0.856233	0.417452	0.265904	2.10898	0.451125	0.795212	0.701415	0.307335	0.767436	1.00464
0.292192	0.715099	0.132013	2.13165	0.292149	0.713745	0.429695	1.41459	0.590602	0.775713	0.856624	0.422099	0.26787	2.11072	0.45187	0.804565	0.70148	0.309052	0.768375	1.01054
0.292868	0.735877	0.134001	2.13388	0.292824	0.734502	0.431016	1.41997	0.591329	0.784441	0.85702	0.426705	0.269837	2.11233	0.452624	0.813966	0.701575	0.311414	0.769319	1.01639
0.293563	0.756959	0.13599	2.13609	0.293518	0.755611	0.432341	1.42522	0.592064	0.793163	0.857419	0.431303	0.271806	2.11386	0.453387	0.823354	0.701679	0.31398	0.770268	1.02223
0.294279	0.778449	0.137981	2.13819	0.294232	0.777078	0.433671	1.43037	0.592807	0.801882	0.857823	0.435959	0.273776	2.11525	0.454158	0.832699	0.701822	0.317502	0.7711	1.02728
0.295014	0.800364	0.139974	2.14015	0.294966	0.798945	0.435006	1.4354	0.593558	0.8106	0.858232	0.440584	0.275747	2.11653	0.454938	0.842095	0.702005	0.321865	0.771813	1.03156
0.29577	0.822638	0.141969	2.14205	0.29572	0.821157	0.436346	1.44034	0.594317	0.81928	0.858644	0.445218	0.27772	2.11772	0.455727	0.851481	0.70223	0.327191	0.772404	1.03507
0.296547	0.84531	0.143965	2.14391	0.296496	0.843799	0.43769	1.44511	0.595085	0.827978	0.859061	0.449873	0.279693	2.1188	0.456525	0.860861	0.702498	0.333483	0.772873	1.03784
0.297345	0.868401	0.145964	2.14572	0.297293	0.866876	0.439039	1.4498	0.59586	0.836648	0.859483	0.454495	0.281668	2.11977	0.457331	0.870276	0.702812	0.340685	0.773219	1.03989
0.298165	0.891959	0.147964	2.1474	0.298111	0.890389	0.440392	1.45438	0.596644	0.845341	0.859908	0.459125	0.283643	2.12066	0.458146	0.87967	0.703133	0.347839	0.773441	1.04121
0.299007	0.915969	0.149965	2.14904	0.298952	0.914414	0.441749	1.45887	0.597435	0.854009	0.860338	0.463771	0.285619	2.12147	0.45897	0.889092	0.70346	0.354968	0.77376	1.04312
0.299872	0.940462	0.151968	2.15063	0.299815	0.938877	0.44311	1.46324	0.598235	0.862627	0.860772	0.468375	0.287596	2.12213	0.459803	0.89849	0.703794	0.362158	0.774107	1.04516
0.30076	0.965453	0.153973	2.15212	0.300701	0.963817	0.444475	1.46751	0.599043	0.871258	0.861211	0.473042	0.289574	2.12276	0.460645	0.907913	0.704135	0.369305	0.774581	1.04794
0.301671	0.990948	0.155979	2.15356	0.301611	0.989287	0.445845	1.4717	0.599858	0.879931	0.861597	0.477079	0.291552	2.12329	0.461495	0.917349	0.704482	0.376431	0.775181	1.05136
0.302606	1.01699	0.157986	2.15494	0.302545	1.01528	0.447218	1.47577	0.600682	0.888552	0.861928	0.480553	0.29353	2.12367	0.462354	0.926791	0.704836	0.383546	0.775911	1.05552
0.303566	1.04356	0.159994	2.15629	0.303503	1.04182	0.448595	1.47974	0.601514	0.897111	0.862204	0.483413	0.295509	2.124	0.463222	0.936236	0.705197	0.390656	0.77677	1.06043
0.304551	1.07069	0.162004	2.15759	0.304486	1.0689	0.449975	1.48364	0.602354	0.905712	0.862423	0.485613	0.297488	2.12428	0.464099	0.945683	0.705564	0.397763	0.77776	1.06598
0.305561	1.09839	0.164014	2.15879	0.305495	1.09658	0.451359	1.48745	0.603202	0.914333	0.862585	0.487178	0.299467	2.12449	0.464984	0.95513	0.705938	0.404832	0.778756	1.07153
