Sym0		Asym0		Sym1		Sym2		Sym3		Sym4		Asym1		Asym2		Asym3		Asym4	
455  Points		539  Points		454  Points		403  Points		367  Points		277  Points		479  Points		418  Points		367  Points		278  Points	
Freq (MHz)	Vgr (m/ms)	Freq (MHz)	Vgr (m/ms)	Freq (MHz)	Vgr (m/ms)	Freq (MHz)	Vgr (m/ms)	Freq (MHz)	Vgr (m/ms)	Freq (MHz)	Vgr (m/ms)	Freq (MHz)	Vgr (m/ms)	Freq (MHz)	Vgr (m/ms)	Freq (MHz)	Vgr (m/ms)	Freq (MHz)	Vgr (m/ms)
0.279508	-0.00307439	0.00023256	0.223727	0.279507	-0.00651918	0.356671	0.0182333	0.559017	0.00727666	0.838526	0.00426873	0.139755	0.0457283	0.419265	0.0108238	0.69877	-0.0114981	0.713342	0.0187506
0.279506	-0.00555073	0.000441006	0.258756	0.279501	-0.00897266	0.356688	0.0331512	0.559024	0.0118507	0.83853	0.00655373	0.139798	0.081527	0.419275	0.0155282	0.698759	-0.017304	0.713359	0.0323249
0.279498	-0.0104163	0.000714723	0.328465	0.27949	-0.0138429	0.356733	0.0630369	0.559039	0.0210318	0.838538	0.0112115	0.139907	0.152961	0.419294	0.024954	0.698738	-0.0287893	0.713402	0.0593515
0.279486	-0.0152402	0.00105306	0.397278	0.279475	-0.0186028	0.356805	0.0928522	0.559063	0.0302388	0.838551	0.0159127	0.140083	0.22398	0.419321	0.0343573	0.698706	-0.0398946	0.71347	0.0860853
0.27947	-0.0199807	0.00145501	0.464957	0.279456	-0.0232155	0.356906	0.122527	0.559096	0.0394243	0.838568	0.0205543	0.140324	0.294385	0.419358	0.0437155	0.698663	-0.0505328	0.713562	0.11238
0.279449	-0.0245545	0.00191946	0.531469	0.279432	-0.0276802	0.357034	0.152066	0.559137	0.04864	0.838589	0.0252234	0.140631	0.363931	0.419403	0.0531303	0.698611	-0.0606033	0.713679	0.13809
0.279424	-0.0290146	0.00244534	0.596596	0.279404	-0.0319952	0.357189	0.181482	0.559186	0.0578429	0.838615	0.0298739	0.141002	0.432492	0.419457	0.0625849	0.69855	-0.0699776	0.71382	0.163142
0.279395	-0.0332474	0.00303115	0.6602	0.279372	-0.0360843	0.357372	0.210723	0.559245	0.0670201	0.838645	0.0345609	0.141437	0.499959	0.419519	0.0719726	0.698481	-0.0786188	0.713983	0.187465
0.279362	-0.0372452	0.00367555	0.722223	0.279337	-0.0399412	0.357582	0.23969	0.559311	0.0762193	0.838679	0.0392472	0.141934	0.566046	0.419591	0.081373	0.698404	-0.086453	0.714169	0.211062
0.279325	-0.0410659	0.00437694	0.782549	0.279298	-0.0435533	0.357818	0.268473	0.559387	0.0853891	0.838718	0.0438592	0.142492	0.63069	0.419671	0.0907988	0.69832	-0.0934788	0.714376	0.233793
0.279285	-0.0446058	0.00513375	0.84109	0.279256	-0.0468958	0.358082	0.296961	0.55947	0.0945735	0.838761	0.0485421	0.143109	0.693841	0.41976	0.100202	0.69823	-0.0996934	0.714605	0.255671
0.279242	-0.0478038	0.00594422	0.897821	0.27921	-0.0499186	0.358372	0.325154	0.559563	0.103787	0.838808	0.0532204	0.143785	0.755323	0.419858	0.109634	0.698134	-0.105018	0.714853	0.276723
0.279196	-0.0507573	0.00680674	0.952689	0.279163	-0.0525952	0.358688	0.353049	0.559664	0.112986	0.83886	0.0578895	0.144517	0.815079	0.419964	0.119049	0.698034	-0.109516	0.71512	0.296927
0.279148	-0.0533685	0.00771945	1.00566	0.279112	-0.0549453	0.35903	0.380566	0.559773	0.122154	0.838916	0.0625402	0.145303	0.872995	0.420079	0.128432	0.69793	-0.113237	0.715406	0.316314
0.279097	-0.0555879	0.00868068	1.05675	0.27906	-0.0569357	0.359397	0.407769	0.559891	0.131336	0.838977	0.0672274	0.146143	0.929062	0.420203	0.137821	0.697823	-0.116138	0.71571	0.334874
0.279044	-0.0574633	0.00968859	1.1059	0.279006	-0.0585726	0.359789	0.434635	0.560018	0.140544	0.839041	0.0719143	0.147035	0.983261	0.420336	0.147225	0.697714	-0.118279	0.71603	0.352658
0.27899	-0.0589435	0.0107414	1.15316	0.278951	-0.0597957	0.360207	0.461049	0.560153	0.149731	0.839111	0.0765273	0.147976	1.03556	0.420478	0.156659	0.697603	-0.119777	0.716367	0.369769
0.278934	-0.060073	0.0118374	1.19852	0.278895	-0.0606306	0.360649	0.487069	0.560297	0.158878	0.839184	0.0812123	0.148964	1.08595	0.420628	0.166078	0.697491	-0.120577	0.716719	0.386192
0.278878	-0.0607938	0.0129747	1.24207	0.278838	-0.0610552	0.361114	0.512742	0.560449	0.168089	0.839262	0.0858948	0.149999	1.13443	0.420787	0.175467	0.697378	-0.120711	0.717086	0.4019
0.278821	-0.0610635	0.0141518	1.28384	0.278781	-0.0610256	0.361604	0.537942	0.56061	0.177284	0.839344	0.0905724	0.151078	1.18108	0.420955	0.184871	0.697266	-0.120319	0.717468	0.417056
0.278764	-0.0609438	0.015367	1.3238	0.278724	-0.0606001	0.362117	0.562706	0.56078	0.186444	0.839431	0.09524	0.152053	1.22022	0.421132	0.194304	0.697154	-0.11939	0.717864	0.431621
0.278708	-0.0604113	0.0166186	1.36204	0.278668	-0.0597491	0.362652	0.58704	0.560958	0.195609	0.839522	0.0998876	0.152909	1.25245	0.421317	0.203722	0.697043	-0.117898	0.718272	0.445663
0.278652	-0.0594197	0.017905	1.39861	0.278613	-0.0584133	0.363211	0.610951	0.561144	0.204784	0.839617	0.104569	0.153633	1.27843	0.421511	0.213109	0.696934	-0.115939	0.718694	0.459246
0.278597	-0.0579492	0.0192247	1.43351	0.278559	-0.0566938	0.363791	0.634457	0.561339	0.213978	0.839716	0.109243	0.154217	1.2984	0.421714	0.222508	0.696827	-0.113633	0.719128	0.472348
0.278544	-0.0561068	0.0205762	1.46691	0.278507	-0.0545733	0.364393	0.657445	0.561543	0.223138	0.83982	0.113905	0.154651	1.31299	0.421926	0.231931	0.696722	-0.110851	0.719574	0.485004
0.278492	-0.0538136	0.0219582	1.49878	0.278458	-0.0519435	0.365016	0.679984	0.561755	0.232302	0.839929	0.118615	0.154932	1.3221	0.422146	0.241328	0.696621	-0.107705	0.720032	0.497278
0.278443	-0.0510583	0.023369	1.5292	0.278411	-0.0488813	0.36566	0.702138	0.561976	0.241476	0.840041	0.123273	0.155338	1.33489	0.422376	0.250748	0.696522	-0.104269	0.720501	0.509228
0.278397	-0.0478914	0.0248077	1.55825	0.278367	-0.0453936	0.366324	0.723813	0.562205	0.250667	0.840158	0.127902	0.155785	1.34875	0.422614	0.260141	0.696426	-0.100474	0.720981	0.520823
0.278354	-0.0442676	0.0262726	1.58594	0.278326	-0.0414943	0.367009	0.745044	0.562443	0.259823	0.84028	0.132619	0.156399	1.3672	0.42286	0.26955	0.696334	-0.0963979	0.721471	0.532075
0.278315	-0.0402425	0.0277629	1.6124	0.278289	-0.037138	0.367713	0.765826	0.562689	0.268977	0.840405	0.137293	0.157189	1.39002	0.423116	0.278993	0.696247	-0.0920551	0.721972	0.543081
0.278279	-0.0357813	0.0292772	1.63756	0.278257	-0.0323806	0.368436	0.786151	0.562944	0.278132	0.840536	0.141952	0.15816	1.41671	0.42338	0.288358	0.696163	-0.0874712	0.722483	0.553812
0.278248	-0.0308872	0.0308143	1.66159	0.278229	-0.0271871	0.369178	0.806072	0.563208	0.287286	0.84067	0.146656	0.159323	1.44696	0.423653	0.297787	0.696084	-0.0826977	0.723004	0.564289
0.278222	-0.0255667	0.0323734	1.68453	0.278206	-0.0215608	0.369938	0.825554	0.563479	0.296438	0.840809	0.151304	0.160687	1.48018	0.423935	0.307195	0.696009	-0.0776919	0.723535	0.574549
0.2782	-0.019833	0.0339533	1.70639	0.278189	-0.0155817	0.370716	0.844596	0.56376	0.305587	0.840952	0.155986	0.162081	1.51199	0.424226	0.316564	0.695939	-0.0725143	0.724075	0.584596
0.278185	-0.0137123	0.035553	1.72724	0.278177	-0.00918981	0.371512	0.863269	0.564049	0.314731	0.841099	0.160663	0.163504	1.54236	0.424525	0.326001	0.695874	-0.0671394	0.724624	0.594435
0.278175	-0.00718382	0.0371718	1.74713	0.278172	-0.00241194	0.372325	0.8815	0.564346	0.323863	0.841251	0.165328	0.164955	1.57131	0.424833	0.335426	0.695814	-0.0615899	0.725182	0.604079
0.278171	-0.000279149	0.0388086	1.7661	0.278172	0.00385542	0.373154	0.899286	0.564652	0.333044	0.841408	0.170044	0.166432	1.59898	0.42515	0.344827	0.695759	-0.0559109	0.72575	0.613553
0.278174	0.00701165	0.0404627	1.78419	0.278177	0.0093912	0.374	0.916693	0.564967	0.342178	0.841568	0.174716	0.167934	1.62533	0.425476	0.354256	0.69571	-0.0501192	0.726326	0.622905
0.278184	0.0147085	0.0421333	1.80148	0.278183	0.0140764	0.374862	0.93371	0.56529	0.351292	0.841733	0.179371	0.169461	1.65045	0.42581	0.363663	0.695666	-0.0441755	0.72691	0.63209
0.278202	0.0227779	0.0438196	1.81796	0.278191	0.0179311	0.37574	0.950385	0.565622	0.360436	0.841902	0.184068	0.17101	1.67443	0.426153	0.373031	0.695627	-0.0380741	0.727504	0.641083
0.278227	0.0311531	0.0455208	1.83371	0.278197	0.0208779	0.376633	0.966669	0.565962	0.36957	0.842076	0.188773	0.172581	1.6973	0.426505	0.382464	0.695595	-0.0319505	0.728105	0.649988
0.27826	0.0399201	0.0472365	1.84874	0.278202	0.022767	0.377541	0.982539	0.56631	0.378682	0.842254	0.193424	0.174173	1.7191	0.426866	0.391883	0.695568	-0.0257091	0.728715	0.65879
0.278301	0.0490313	0.0489658	1.86305	0.278209	0.0254431	0.378464	0.998091	0.566667	0.387824	0.842437	0.198112	0.175784	1.73988	0.427236	0.401272	0.695547	-0.0193055	0.729333	0.667457
0.278351	0.0584646	0.0507081	1.87674	0.278218	0.0284244	0.379401	1.0133	0.567033	0.396952	0.842623	0.202799	0.177415	1.75972	0.427614	0.410675	0.695532	-0.0128703	0.729958	0.676002
0.27841	0.0682492	0.0524629	1.88982	0.278232	0.0325948	0.380352	1.02812	0.567407	0.406054	0.842814	0.207487	0.179063	1.77865	0.428001	0.420106	0.695523	-0.00637209	0.730592	0.68445
0.278478	0.0782969	0.0542295	1.90235	0.278252	0.0379917	0.381317	1.04261	0.567789	0.415175	0.84301	0.212174	0.180729	1.79672	0.428397	0.42952	0.69552	0.000252357	0.731234	0.692777
0.278556	0.0887244	0.0560077	1.91431	0.278281	0.0446837	0.382295	1.05678	0.568181	0.424263	0.84321	0.216862	0.182411	1.81393	0.428801	0.438899	0.695523	0.00690945	0.731883	0.701007
0.278644	0.0994718	0.0577967	1.92572	0.27832	0.0527538	0.383286	1.07062	0.56858	0.433357	0.843414	0.22155	0.184109	1.83033	0.429214	0.448356	0.695533	0.0136318	0.73254	0.70919
0.278741	0.110493	0.059596	1.93665	0.278374	0.0623401	0.38429	1.08417	0.568988	0.442463	0.843623	0.226238	0.185822	1.846	0.429637	0.457749	0.695549	0.0204116	0.733205	0.717282
0.278849	0.121769	0.0614054	1.9471	0.278436	0.0722601	0.385306	1.09742	0.569405	0.451591	0.843836	0.230927	0.187549	1.86098	0.430067	0.467158	0.695571	0.0272328	0.733877	0.725261
0.278968	0.133335	0.0632242	1.95708	0.278508	0.0824936	0.386335	1.11037	0.56983	0.460694	0.844053	0.235617	0.18929	1.87528	0.430507	0.476603	0.695599	0.0341369	0.734556	0.733164
0.279098	0.14526	0.0650522	1.96664	0.27859	0.0929936	0.387241	1.1214	0.570263	0.469744	0.844275	0.24031	0.191043	1.88887	0.430956	0.48597	0.695634	0.0410604	0.735243	0.740985
0.279239	0.157391	0.0668889	1.9758	0.278682	0.10381	0.38802	1.1306	0.570705	0.478835	0.844501	0.245009	0.192809	1.90186	0.431413	0.495404	0.695676	0.0480226	0.735937	0.748792
0.279391	0.169789	0.0687339	1.9846	0.278783	0.114968	0.38867	1.13808	0.571155	0.487934	0.844731	0.249718	0.194587	1.91428	0.431879	0.504822	0.695724	0.0550621	0.736638	0.756494
0.279555	0.182499	0.0705869	1.99298	0.278896	0.126406	0.389186	1.14394	0.571614	0.496978	0.844966	0.254376	0.196376	1.92617	0.432353	0.51421	0.695778	0.0621101	0.737347	0.764134
0.279731	0.195395	0.0724476	2.00101	0.279019	0.138094	0.389567	1.14833	0.572081	0.506057	0.845205	0.259078	0.198176	1.9375	0.432837	0.523685	0.69584	0.0691747	0.738062	0.771725
0.279919	0.20859	0.0743156	2.00872	0.279153	0.150091	0.389812	1.15106	0.572557	0.515133	0.845449	0.263793	0.199987	1.94829	0.433265	0.531885	0.695907	0.0762727	0.738785	0.779216
0.28012	0.222016	0.0761906	2.01609	0.279299	0.162351	0.390165	1.1549	0.573041	0.524202	0.845697	0.268464	0.201807	1.95863	0.433636	0.538857	0.695982	0.0834374	0.739514	0.786655
0.280333	0.235684	0.0780724	2.02315	0.279456	0.174854	0.39055	1.15905	0.573534	0.533259	0.845949	0.273192	0.203636	1.96849	0.433946	0.544626	0.696063	0.0905891	0.74025	0.794061
0.280559	0.249616	0.0799605	2.02993	0.279624	0.187623	0.391076	1.16462	0.574035	0.542291	0.846206	0.277887	0.205475	1.97792	0.434193	0.54921	0.696151	0.097788	0.740994	0.801402
0.280798	0.263712	0.0818549	2.03645	0.279805	0.200673	0.391744	1.1717	0.574544	0.551347	0.846467	0.282588	0.207322	1.98696	0.434377	0.552536	0.696245	0.105008	0.741744	0.808687
0.281051	0.27806	0.0837552	2.0427	0.279998	0.213937	0.392558	1.18008	0.575062	0.560375	0.846732	0.287303	0.209177	1.99558	0.434495	0.554688	0.696346	0.112197	0.742501	0.815933
0.281316	0.292693	0.0856613	2.04867	0.280204	0.227453	0.39352	1.18975	0.575589	0.569424	0.847002	0.291974	0.211041	2.00381	0.434665	0.557896	0.696454	0.119471	0.743264	0.823101
0.281596	0.307531	0.0875727	2.05438	0.280422	0.241242	0.394634	1.20057	0.576123	0.578439	0.847276	0.2967	0.212911	2.01166	0.434851	0.561217	0.696569	0.126768	0.744034	0.830259
0.281889	0.322559	0.0894894	2.05988	0.280653	0.255242	0.395758	1.21114	0.576666	0.58746	0.847555	0.301391	0.214789	2.01921	0.435106	0.565748	0.69669	0.134037	0.744811	0.837323
0.282197	0.33782	0.0914111	2.06517	0.280898	0.269455	0.396891	1.22155	0.577218	0.596494	0.847838	0.306086	0.216674	2.02639	0.435432	0.571617	0.696819	0.141324	0.745595	0.844348
0.282519	0.353327	0.0933376	2.07024	0.281156	0.283923	0.398034	1.23166	0.577778	0.605481	0.848125	0.310789	0.218565	2.03324	0.43583	0.578564	0.696954	0.148648	0.746385	0.851366
0.282855	0.369034	0.0952687	2.07511	0.281427	0.298628	0.399186	1.24155	0.578346	0.614517	0.848417	0.315507	0.220462	2.03978	0.436303	0.586772	0.697096	0.155972	0.747181	0.858299
0.283207	0.384921	0.0972043	2.07981	0.281712	0.313524	0.400347	1.25126	0.578923	0.623508	0.848713	0.320255	0.222366	2.04605	0.436854	0.59621	0.697244	0.163294	0.747984	0.865206
0.283573	0.401093	0.0991442	2.08429	0.282011	0.328663	0.401517	1.26073	0.579508	0.632481	0.849014	0.324917	0.224275	2.05208	0.437414	0.605616	0.6974	0.170615	0.748793	0.872061
0.283954	0.417472	0.101088	2.08856	0.282324	0.344032	0.402696	1.27	0.580102	0.641492	0.849319	0.329628	0.22619	2.05776	0.437982	0.615043	0.697562	0.177933	0.749609	0.878887
0.284351	0.434041	0.103036	2.09272	0.282652	0.359591	0.403884	1.27903	0.580703	0.650506	0.849628	0.334362	0.228109	2.06321	0.43856	0.624518	0.697731	0.185318	0.750431	0.885655
0.284763	0.450848	0.104988	2.09671	0.282994	0.375353	0.40508	1.28791	0.581314	0.65945	0.849942	0.33907	0.230034	2.06842	0.439146	0.633943	0.697908	0.19269	0.751259	0.892379
0.285191	0.467909	0.106943	2.10052	0.283352	0.391401	0.406284	1.29659	0.581932	0.668403	0.85026	0.343797	0.231964	2.07341	0.439741	0.643342	0.69809	0.200037	0.752094	0.899089
0.285635	0.485185	0.108902	2.10419	0.283724	0.407628	0.407496	1.30504	0.582478	0.676217	0.850582	0.348491	0.233898	2.07817	0.440345	0.652766	0.69828	0.207406	0.752935	0.905698
0.286095	0.502671	0.110864	2.1077	0.284111	0.424091	0.408716	1.31332	0.582948	0.68286	0.850909	0.35319	0.235836	2.08271	0.440957	0.662239	0.698477	0.214748	0.753781	0.912323
0.286571	0.520432	0.112829	2.11108	0.284514	0.440782	0.409943	1.32142	0.583341	0.688393	0.851241	0.357903	0.237779	2.087	0.441579	0.6717	0.69868	0.222106	0.754635	0.918908
0.287	0.536083	0.114544	2.11393	0.284933	0.45766	0.411178	1.32935	0.583653	0.692744	0.851576	0.36264	0.239725	2.09112	0.442209	0.681118	0.698891	0.229499	0.755494	0.925413
0.287376	0.549544	0.116008	2.11634	0.285367	0.474815	0.41242	1.33709	0.583884	0.695982	0.851916	0.367354	0.241675	2.09505	0.442848	0.690551	0.699108	0.236887	0.756359	0.931904
0.287694	0.560771	0.11722	2.11814	0.285817	0.492145	0.413669	1.34466	0.584033	0.69798	0.852261	0.372095	0.243629	2.09877	0.443496	0.699991	0.699332	0.244265	0.75723	0.938368
0.287949	0.569833	0.118179	2.11964	0.286284	0.509746	0.414926	1.3521	0.584247	0.70083	0.85261	0.376816	0.245586	2.10235	0.444152	0.709436	0.699563	0.251625	0.758108	0.944777
0.28814	0.576536	0.118885	2.12077	0.286767	0.527628	0.416189	1.35934	0.584481	0.704058	0.852963	0.381496	0.247546	2.10572	0.444818	0.718919	0.699801	0.258947	0.758991	0.95115
0.288263	0.580757	0.119336	2.12137	0.287267	0.545724	0.417459	1.36644	0.5848	0.708434	0.853321	0.386242	0.24951	2.1089	0.445492	0.728384	0.700046	0.266339	0.75988	0.957524
0.288442	0.586885	0.119986	2.12231	0.287784	0.564038	0.418735	1.37336	0.585207	0.713938	0.853683	0.390974	0.251476	2.11196	0.446175	0.737804	0.700297	0.273727	0.760775	0.963828
0.288638	0.593614	0.120692	2.12336	0.288318	0.582643	0.420018	1.38015	0.585704	0.720549	0.854049	0.395677	0.253445	2.11484	0.446867	0.747275	0.700556	0.281031	0.761676	0.970062
0.288909	0.602807	0.121653	2.12466	0.28887	0.60154	0.421307	1.38681	0.586292	0.728287	0.85442	0.400395	0.255417	2.11756	0.447567	0.756735	0.700821	0.288388	0.762583	0.976306
0.289257	0.614561	0.12287	2.12639	0.289439	0.620693	0.422602	1.39328	0.586975	0.737189	0.854795	0.405145	0.257391	2.12017	0.448277	0.766189	0.701093	0.295779	0.763495	0.982494
0.289688	0.628905	0.124342	2.12836	0.290026	0.640121	0.423903	1.39963	0.587666	0.746144	0.855175	0.409882	0.259368	2.12261	0.448995	0.775676	0.701336	0.302198	0.764413	0.988644
0.290205	0.645994	0.126071	2.13058	0.290632	0.659869	0.42521	1.40581	0.588365	0.755016	0.855559	0.414597	0.261346	2.12493	0.449722	0.785144	0.701547	0.307625	0.765337	0.994792
0.290816	0.665826	0.128057	2.13311	0.291256	0.679923	0.426523	1.4119	0.589072	0.763884	0.855947	0.41934	0.263327	2.12711	0.450458	0.794639	0.701724	0.312067	0.766267	1.00086
0.291446	0.685959	0.130046	2.13548	0.291899	0.700241	0.427841	1.41784	0.589788	0.772785	0.85634	0.424063	0.26531	2.12912	0.451203	0.804074	0.701866	0.315748	0.767202	1.00693
0.292094	0.706426	0.132037	2.13776	0.292561	0.720947	0.429165	1.42363	0.590512	0.78163	0.856738	0.42875	0.267295	2.13104	0.451957	0.813552	0.701972	0.318209	0.768143	1.01297
0.292762	0.727206	0.134029	2.13996	0.293242	0.74203	0.430494	1.42935	0.591245	0.790484	0.857139	0.43351	0.269281	2.13284	0.452719	0.823089	0.70204	0.31985	0.76909	1.01891
0.29345	0.7484	0.136024	2.14209	0.293943	0.763448	0.431828	1.43488	0.591985	0.799342	0.857545	0.438268	0.271269	2.13451	0.45349	0.832544	0.702138	0.3224	0.770042	1.02486
0.294157	0.769909	0.138021	2.14414	0.294665	0.785253	0.433168	1.44028	0.592734	0.808166	0.857956	0.442951	0.273258	2.13608	0.45427	0.841996	0.702246	0.324967	0.771	1.03082
0.294884	0.791797	0.14002	2.14608	0.295407	0.807435	0.434512	1.44562	0.593491	0.816972	0.858371	0.447701	0.275249	2.13752	0.455059	0.85152	0.702394	0.328541	0.771839	1.03594
0.295632	0.81413	0.14202	2.14793	0.296169	0.830025	0.435861	1.45081	0.594257	0.825806	0.85879	0.452442	0.277241	2.13887	0.455857	0.861042	0.702583	0.333049	0.772557	1.04021
0.296401	0.836869	0.144022	2.14973	0.296953	0.853039	0.437215	1.4559	0.59503	0.834655	0.859214	0.457164	0.279235	2.14009	0.456664	0.870527	0.702815	0.338477	0.773153	1.04382
0.297192	0.86003	0.146026	2.15148	0.297759	0.876521	0.438574	1.46086	0.595812	0.843437	0.859642	0.461919	0.281229	2.14121	0.457479	0.880031	0.703093	0.344852	0.773626	1.04677
0.298004	0.883623	0.148031	2.15316	0.298587	0.900456	0.439938	1.46572	0.596602	0.852186	0.860075	0.466668	0.283225	2.14221	0.458304	0.889543	0.703418	0.35218	0.773975	1.04876
0.298838	0.907687	0.150038	2.15473	0.299437	0.924875	0.441305	1.47046	0.5974	0.860991	0.860512	0.471406	0.285221	2.14315	0.459137	0.89906	0.703749	0.359433	0.774199	1.05
0.299695	0.93228	0.152046	2.15621	0.30031	0.949829	0.442678	1.47506	0.598206	0.869752	0.860953	0.476122	0.287218	2.14399	0.459979	0.90858	0.704087	0.366685	0.77452	1.05191
0.300575	0.957357	0.154056	2.15768	0.301207	0.975233	0.444054	1.47964	0.599021	0.87849	0.861399	0.480865	0.289216	2.1447	0.46083	0.918063	0.704432	0.37401	0.774871	1.05402
0.301479	0.982933	0.156067	2.15908	0.302127	1.00119	0.445435	1.48408	0.599843	0.887254	0.861849	0.485591	0.291215	2.14535	0.46169	0.927602	0.704784	0.381261	0.775348	1.05687
0.302407	1.00909	0.158079	2.1604	0.303072	1.02772	0.446819	1.48836	0.600674	0.895957	0.862245	0.489744	0.293214	2.14593	0.462558	0.937169	0.705143	0.388512	0.775954	1.06036
0.303359	1.03575	0.160092	2.16172	0.304042	1.05483	0.448208	1.49262	0.601513	0.904666	0.862585	0.493281	0.295213	2.14637	0.463436	0.946677	0.705508	0.395763	0.77669	1.06455
0.304337	1.063	0.162107	2.16293	0.305038	1.08248	0.449601	1.49676	0.60236	0.913379	0.862868	0.496167	0.297213	2.14673	0.464322	0.956228	0.70588	0.402978	0.777556	1.06949
0.30534	1.09087	0.164123	2.16408	0.306059	1.1107	0.450997	1.50081	0.603215	0.922057	0.863093	0.498443	0.299214	2.14706	0.465218	0.965765	0.706259	0.41021	0.778555	1.0752
0.30637	1.11927	0.16614	2.16521	0.307108	1.13957	0.452397	1.50478	0.604078	0.930753	0.86326	0.500173	0.301214	2.14722	0.466122	0.975293	0.706645	0.417416	0.779559	1.08081
