Sym0		Asym0		Sym1		Asym1		Asym2		Asym3	
342  Points		342  Points		210  Points		292  Points		292  Points		144  Points	
Freq (MHz)	Vgr (m/ms)	Freq (MHz)	Vgr (m/ms)	Freq (MHz)	Vgr (m/ms)	Freq (MHz)	Vgr (m/ms)	Freq (MHz)	Vgr (m/ms)	Freq (MHz)	Vgr (m/ms)
0.00483857	9.01329	5.08762e-005	0.246977	0.459114	-0.0384524	0.322759	0.169429	0.322751	0.127439	0.91823	-0.148961
0.0106335	9.0124	0.000209665	0.330743	0.459089	-0.0609096	0.322868	0.261021	0.322833	0.219118	0.918134	-0.268447
0.0164273	9.01005	0.000476166	0.497664	0.459035	-0.105568	0.323095	0.443879	0.323033	0.402133	0.917885	-0.50283
0.0222192	9.00662	0.000849592	0.663489	0.458953	-0.149457	0.323439	0.625764	0.32335	0.584333	0.917488	-0.725886
0.0280085	9.0022	0.00132932	0.827865	0.458843	-0.192338	0.323899	0.806341	0.323784	0.765219	0.916951	-0.933718
0.0337948	8.99676	0.00191411	0.9903	0.458706	-0.233948	0.324476	0.98515	0.324334	0.944434	0.916287	-1.12352
0.0395771	8.99024	0.00260271	1.15065	0.458542	-0.27397	0.325166	1.16191	0.324998	1.12169	0.915507	-1.29382
0.045355	8.9826	0.00339369	1.30855	0.458354	-0.312196	0.32597	1.33626	0.325776	1.29661	0.914623	-1.44412
0.0511275	8.97389	0.00428532	1.46364	0.458141	-0.348314	0.326884	1.50783	0.326666	1.46888	0.91365	-1.57488
0.0568941	8.96402	0.00527574	1.61579	0.457906	-0.382023	0.327909	1.67648	0.327665	1.63818	0.912598	-1.68719
0.062654	8.95298	0.00636301	1.76471	0.45765	-0.413248	0.32904	1.84182	0.328772	1.80432	0.91148	-1.78232
0.0684064	8.94077	0.0075449	1.91012	0.457374	-0.441733	0.330277	2.00364	0.329985	1.96699	0.910306	-1.86187
0.0741506	8.92728	0.00881915	2.05192	0.457082	-0.46718	0.331617	2.16171	0.331301	2.1259	0.909086	-1.92747
0.0798857	8.91251	0.0101834	2.19002	0.456774	-0.489523	0.333057	2.31588	0.332719	2.28101	0.907828	-1.98065
0.0856108	8.89645	0.0116352	2.32421	0.456452	-0.508525	0.334594	2.46607	0.334234	2.43213	0.906539	-2.02291
0.0913253	8.87897	0.013172	2.45438	0.45612	-0.524026	0.336228	2.61203	0.335846	2.57899	0.905227	-2.05543
0.097028	8.86004	0.0147912	2.58058	0.455778	-0.535923	0.337953	2.75366	0.337551	2.72167	0.903896	-2.07948
0.102718	8.8397	0.0164903	2.70263	0.455431	-0.544115	0.339768	2.89097	0.339346	2.86004	0.902553	-2.09607
0.108395	8.8177	0.0182664	2.82054	0.455079	-0.5484	0.341671	3.02391	0.341228	2.9939	0.901201	-2.10601
0.114056	8.79408	0.0201171	2.9343	0.454725	-0.54869	0.343657	3.15232	0.343195	3.12333	0.899845	-2.11017
0.119703	8.76881	0.0220395	3.044	0.454373	-0.544919	0.345724	3.27627	0.345244	3.24835	0.898488	-2.10916
0.125332	8.74161	0.0240312	3.14962	0.454025	-0.536953	0.34787	3.39584	0.347372	3.3689	0.897133	-2.10363
0.130943	8.71258	0.0260895	3.25111	0.453683	-0.524736	0.350091	3.51091	0.349576	3.48498	0.895783	-2.09406
0.136535	8.68159	0.0282117	3.3487	0.45335	-0.508155	0.352384	3.62154	0.351854	3.59667	0.89444	-2.08075
0.142106	8.64847	0.0303955	3.44242	0.453029	-0.487094	0.354747	3.72786	0.354201	3.70393	0.893107	-2.06421
0.147656	8.61313	0.0326382	3.5322	0.452724	-0.461529	0.357178	3.82989	0.356616	3.80689	0.891786	-2.04473
0.153182	8.57545	0.0349374	3.61826	0.452436	-0.431414	0.359672	3.9276	0.359096	3.90563	0.890478	-2.02243
0.158683	8.53533	0.0372908	3.70069	0.452169	-0.396551	0.362228	4.02114	0.361638	4.00014	0.889185	-1.99778
0.164157	8.49256	0.039696	3.77959	0.451926	-0.356863	0.364843	4.11067	0.36424	4.09056	0.887909	-1.97088
0.169603	8.44704	0.0421508	3.85502	0.45171	-0.312299	0.367514	4.19613	0.366898	4.17694	0.886651	-1.94181
0.175019	8.39866	0.044653	3.92712	0.451524	-0.262761	0.370238	4.27766	0.369611	4.25938	0.885412	-1.91083
0.180402	8.34721	0.0472005	3.99596	0.451372	-0.208158	0.373014	4.3554	0.372375	4.33796	0.884194	-1.87807
0.185752	8.29251	0.0497912	4.06168	0.451257	-0.148305	0.375839	4.42935	0.375189	4.41277	0.882997	-1.84364
0.191065	8.23437	0.0524233	4.12445	0.451181	-0.0831536	0.37871	4.49968	0.378049	4.48395	0.881823	-1.80759
0.19634	8.17265	0.0550947	4.18418	0.45115	-0.0126069	0.381625	4.56645	0.380955	4.55148	0.880673	-1.76997
0.201574	8.10715	0.0578036	4.24123	0.451165	0.06353	0.384582	4.62975	0.383902	4.61553	0.879547	-1.73093
0.206765	8.03761	0.0605483	4.29559	0.451231	0.145328	0.387578	4.68957	0.38689	4.67623	0.878447	-1.69054
0.21191	7.96391	0.0633271	4.3473	0.451352	0.233036	0.390612	4.74618	0.389915	4.73353	0.877373	-1.6488
0.217005	7.88583	0.0661383	4.39659	0.451531	0.326725	0.393681	4.79963	0.392976	4.78763	0.876327	-1.60577
0.22205	7.8031	0.0689805	4.44349	0.451772	0.426432	0.396783	4.84985	0.396071	4.83862	0.875309	-1.56152
0.227039	7.71556	0.0718521	4.48815	0.452079	0.532447	0.399917	4.89702	0.399198	4.88658	0.874319	-1.51611
0.231971	7.62304	0.0747516	4.53055	0.452457	0.644918	0.40308	4.94127	0.402355	4.93144	0.873359	-1.46945
0.236841	7.52536	0.0776777	4.57089	0.452909	0.763827	0.406271	4.98263	0.405539	4.97341	0.87243	-1.42167
0.241647	7.42235	0.0806292	4.60931	0.453439	0.889353	0.409487	5.0212	0.40875	5.01265	0.871531	-1.37281
0.246385	7.31385	0.0836047	4.64573	0.454052	1.02164	0.412727	5.05695	0.411985	5.04901	0.870664	-1.32274
0.251052	7.19982	0.0866029	4.68034	0.454753	1.16064	0.41599	5.09003	0.415242	5.08266	0.86983	-1.27163
0.255643	7.08011	0.0896229	4.71328	0.455545	1.30651	0.419273	5.12052	0.41852	5.11377	0.869029	-1.21951
0.260156	6.9547	0.0926635	4.74443	0.456433	1.45921	0.422574	5.14839	0.421818	5.14223	0.868262	-1.16622
0.264586	6.82359	0.0957236	4.77406	0.457421	1.61866	0.425893	5.17377	0.425133	5.16817	0.86753	-1.11185
0.26893	6.68694	0.0988023	4.80221	0.458514	1.78472	0.429227	5.19673	0.428463	5.19172	0.866832	-1.0565
0.273185	6.54493	0.101899	4.82879	0.459716	1.95722	0.432575	5.21728	0.431808	5.2128	0.866171	-1.00005
0.277346	6.39761	0.105011	4.85404	0.461031	2.136	0.435936	5.23544	0.435166	5.23151	0.865546	-0.942545
0.281411	6.24542	0.10814	4.87801	0.462463	2.32067	0.439307	5.25129	0.438535	5.24791	0.864959	-0.884003
0.285377	6.08878	0.111284	4.90068	0.464015	2.51085	0.442688	5.26495	0.441914	5.26203	0.86441	-0.824444
0.28924	5.92802	0.114442	4.92215	0.465691	2.70609	0.446077	5.27634	0.445302	5.27393	0.863899	-0.763809
0.292999	5.7638	0.117613	4.94248	0.467495	2.90585	0.449473	5.28553	0.448696	5.28361	0.863428	-0.702082
0.296652	5.59679	0.120797	4.9617	0.469428	3.10933	0.452873	5.29267	0.452096	5.29118	0.862996	-0.639339
0.300196	5.42761	0.123993	4.97986	0.471493	3.3159	0.456278	5.2976	0.4555	5.29668	0.862605	-0.575625
0.303631	5.25705	0.127201	4.99709	0.473691	3.52484	0.459685	5.30047	0.458906	5.30002	0.862256	-0.510818
0.306956	5.08595	0.130419	5.01328	0.476025	3.73522	0.463094	5.30132	0.462315	5.3013	0.861949	-0.444888
0.310171	4.91518	0.133647	5.02857	0.478494	3.94614	0.466502	5.30014	0.465723	5.30057	0.861684	-0.377985
0.313276	4.74557	0.136885	5.04302	0.481099	4.15666	0.469909	5.29706	0.46913	5.29793	0.861463	-0.309984
0.316273	4.57798	0.140132	5.05665	0.483839	4.36595	0.473313	5.29194	0.472536	5.2933	0.861285	-0.240954
0.319163	4.41336	0.143387	5.06946	0.486713	4.57311	0.476714	5.2849	0.475937	5.28668	0.861153	-0.17093
0.321948	4.25247	0.14665	5.08149	0.48972	4.77717	0.480109	5.27602	0.479333	5.27822	0.861066	-0.0998703
0.324631	4.09593	0.149921	5.09293	0.492856	4.97736	0.483498	5.26527	0.482724	5.26789	0.861024	-0.0277311
0.327215	3.94451	0.152777	5.10226	0.49612	5.173	0.48688	5.25267	0.486107	5.25571	0.86103	0.0455061
0.329703	3.79885	0.155216	5.10978	0.499508	5.36327	0.490252	5.2382	0.489482	5.24166	0.861083	0.119701
0.3321	3.65942	0.157235	5.11587	0.503016	5.54765	0.493615	5.222	0.492847	5.22586	0.861184	0.194961
0.334408	3.52661	0.158833	5.12045	0.506641	5.72568	0.496967	5.20413	0.496202	5.20838	0.861334	0.271184
0.336634	3.40077	0.16001	5.12361	0.510379	5.89685	0.500307	5.18443	0.499545	5.18912	0.861532	0.348378
0.338781	3.28208	0.160763	5.12564	0.514224	6.06088	0.503634	5.16306	0.502874	5.16812	0.861781	0.426667
0.340855	3.1707	0.161846	5.12864	0.518172	6.21754	0.506946	5.14007	0.50619	5.14544	0.862081	0.505868
0.342858	3.06679	0.163024	5.13174	0.522219	6.36675	0.510243	5.11543	0.509491	5.12119	0.862432	0.586048
0.344798	2.97022	0.164627	5.13576	0.526359	6.50841	0.513524	5.08917	0.512775	5.09531	0.862835	0.667123
0.346678	2.88087	0.166656	5.14068	0.530588	6.6425	0.516787	5.06138	0.516042	5.06785	0.86329	0.749138
0.348502	2.79877	0.169113	5.14636	0.5349	6.7691	0.520032	5.03213	0.519292	5.03894	0.863798	0.832079
0.350277	2.7236	0.171998	5.15274	0.539292	6.88824	0.523258	5.00132	0.522522	5.00851	0.86436	0.915811
0.352005	2.65522	0.175313	5.15947	0.543758	7.00022	0.526463	4.9691	0.525732	4.97661	0.864976	1.00038
0.353691	2.59338	0.178632	5.16575	0.548293	7.10519	0.529239	4.93992	0.528512	4.9477	0.865646	1.08577
0.355339	2.53774	0.181956	5.17165	0.552894	7.20327	0.531592	4.9143	0.530869	4.92224	0.866372	1.17197
0.356954	2.48813	0.185282	5.1771	0.557556	7.29477	0.533529	4.89248	0.532809	4.90061	0.867153	1.25882
0.358539	2.44419	0.188613	5.1821	0.562274	7.37991	0.535054	4.87485	0.534337	4.88325	0.86799	1.34633
0.360097	2.40558	0.191946	5.18673	0.567045	7.45892	0.536172	4.86179	0.535457	4.87028	0.868884	1.43453
0.361632	2.37207	0.195282	5.1909	0.571865	7.53213	0.536886	4.85341	0.536172	4.8619	0.869835	1.52325
0.363147	2.34338	0.198621	5.19479	0.57673	7.59969	0.53791	4.84106	0.537197	4.84955	0.870843	1.61251
0.364645	2.31922	0.201962	5.19832	0.581637	7.66199	0.53902	4.82742	0.538309	4.8361	0.871908	1.70229
0.366129	2.29924	0.205305	5.20147	0.585945	7.71218	0.540524	4.80877	0.539817	4.81767	0.873032	1.79248
0.367602	2.28316	0.20865	5.20432	0.589638	7.75206	0.542419	4.78482	0.541715	4.79374	0.874213	1.88295
0.369065	2.27085	0.211997	5.20691	0.592706	7.78296	0.544697	4.75525	0.543997	4.76437	0.875453	1.97369
0.370522	2.26192	0.215346	5.20922	0.59514	7.80612	0.547351	4.71974	0.546657	4.72915	0.876751	2.06464
0.371974	2.25618	0.218695	5.21116	0.596934	7.82269	0.550373	4.67816	0.549684	4.68775	0.878108	2.15577
0.373423	2.2535	0.222046	5.21288	0.598085	7.83285	0.553367	4.63556	0.552685	4.64539	0.879523	2.24698
0.374871	2.25346	0.225398	5.21432	0.599741	7.8469	0.556333	4.59207	0.555658	4.60213	0.880997	2.33812
0.376134	2.25544	0.228751	5.21557	0.601544	7.86169	0.559272	4.54783	0.558602	4.55795	0.88253	2.42922
0.377212	2.25857	0.232105	5.21657	0.604002	7.88092	0.562181	4.50273	0.561519	4.5131	0.884121	2.52015
0.378105	2.26216	0.235459	5.21734	0.60712	7.90398	0.565062	4.45699	0.564406	4.46753	0.88577	2.61084
0.378812	2.26549	0.238814	5.21793	0.610901	7.92971	0.567912	4.41066	0.567263	4.42129	0.887478	2.70115
0.379332	2.26834	0.242169	5.21828	0.615352	7.95715	0.570733	4.36372	0.570091	4.3745	0.889244	2.79101
0.379665	2.27027	0.245524	5.21846	0.620477	7.98516	0.573523	4.31637	0.572888	4.32722	0.891067	2.88041
0.380145	2.27322	0.248879	5.21838	0.62562	8.00952	0.576283	4.26866	0.575655	4.27955	0.892947	2.96921
0.380668	2.27679	0.252234	5.21819	0.630777	8.0304	0.579012	4.2206	0.578391	4.23161	0.894885	3.05733
0.381379	2.28189	0.255589	5.21788	0.635946	8.04784	0.58171	4.17237	0.581096	4.18345	0.896879	3.14475
0.382282	2.28896	0.258943	5.2173	0.641125	8.06198	0.584377	4.124	0.58377	4.13506	0.898929	3.23126
0.383377	2.29841	0.262297	5.21659	0.646312	8.07297	0.587013	4.07557	0.586413	4.08667	0.901034	3.31684
0.384668	2.31058	0.265651	5.2158	0.651506	8.0808	0.589618	4.0272	0.589025	4.03827	0.903194	3.40149
0.386159	2.32577	0.269004	5.21483	0.656703	8.08562	0.592192	3.97893	0.591606	3.98993	0.905408	3.48504
0.387659	2.34234	0.272357	5.2137	0.661903	8.0874	0.594734	3.93086	0.594156	3.94182	0.907675	3.56743
0.389171	2.36018	0.275708	5.21251	0.667102	8.08632	0.597246	3.88305	0.596675	3.89399	0.909995	3.64858
0.390694	2.37912	0.279059	5.21111	0.672301	8.08238	0.599727	3.83558	0.599163	3.84641	0.912366	3.7284
0.39223	2.39905	0.282409	5.20956	0.677495	8.07559	0.602178	3.78855	0.601621	3.79921	0.914789	3.80686
0.393779	2.4199	0.285758	5.20799	0.682685	8.06603	0.604599	3.74205	0.604048	3.75258	0.917262	3.88384
0.395341	2.44157	0.289106	5.20631	0.687867	8.05372	0.60699	3.69604	0.606446	3.7065	0.919783	3.95938
0.396918	2.46403	0.292453	5.20451	0.693041	8.0387	0.609352	3.65069	0.608814	3.66101	0.922353	4.03339
0.39851	2.48714	0.295798	5.2026	0.698204	8.02089	0.611684	3.6061	0.611154	3.61625	0.924969	4.10575
0.400116	2.5108	0.299142	5.20059	0.703354	8.00037	0.613989	3.5622	0.613464	3.57221	0.927632	4.17637
0.401738	2.53505	0.302485	5.19846	0.708491	7.97711	0.616265	3.51919	0.615747	3.52896	0.93034	4.24533
0.403376	2.5598	0.305827	5.19624	0.713612	7.95115	0.618514	3.47703	0.618002	3.48659	0.933091	4.31257
0.40503	2.58492	0.309167	5.19395	0.718715	7.92246	0.620736	3.43584	0.62023	3.44513	0.935885	4.37795
0.4067	2.61031	0.312506	5.19164	0.723799	7.89108	0.622932	3.39561	0.622432	3.40466	0.93872	4.44153
0.408386	2.63612	0.315843	5.18922	0.728862	7.85692	0.625102	3.35634	0.624608	3.36521	0.941596	4.50319
0.41009	2.66219	0.319178	5.18668	0.733902	7.81994	0.627247	3.31818	0.626759	3.32681	0.944511	4.56295
0.41181	2.68838	0.322512	5.18413	0.738917	7.78017	0.629369	3.28112	0.628886	3.28951	0.947464	4.6208
0.413546	2.7148	0.325844	5.18148	0.743906	7.73768	0.631467	3.24517	0.630989	3.25335	0.950453	4.67664
0.4153	2.74138	0.329175	5.17877	0.748867	7.69234	0.633542	3.21043	0.633069	3.21829	0.953477	4.73057
0.417072	2.76804	0.332503	5.17599	0.753797	7.64414	0.635595	3.17688	0.635127	3.18441	0.956536	4.7825
0.41886	2.79475	0.33583	5.17316	0.758696	7.59319	0.637627	3.1445	0.637164	3.15176	0.959627	4.83233
0.420665	2.82148	0.339155	5.17026	0.763561	7.53932	0.639638	3.11329	0.63918	3.12032	0.962749	4.8802
0.422488	2.84821	0.342479	5.16728	0.768391	7.48262	0.64163	3.08336	0.641176	3.0901	0.965902	4.92607
0.424328	2.8749	0.3458	5.16435	0.773183	7.42306	0.643603	3.05475	0.643153	3.0612	0.969083	4.96982
0.426185	2.90162	0.349119	5.16129	0.777936	7.36064	0.645558	3.02734	0.645113	3.03348	0.972292	5.01157
0.428059	2.92825	0.352437	5.15817	0.782648	7.29547	0.647496	3.00116	0.647054	3.00699	0.975528	5.05135
0.42995	2.95477	0.355752	5.15507	0.787317	7.22749	0.649417	2.97624	0.648979	2.98181	0.978788	5.08898
0.431858	2.9812	0.359065	5.15188	0.791941	7.15667	0.651323	2.95258	0.650888	2.95791	0.982071	5.12454
0.433783	3.00746	0.362376	5.14858	0.796519	7.08321	0.653214	2.93019	0.652783	2.93524	0.985377	5.1582
0.435725	3.0336	0.365686	5.14534	0.801049	7.00715	0.65509	2.90902	0.654663	2.91377	0.988275	5.18593
0.437684	3.05956	0.368993	5.14208	0.805529	6.92842	0.656954	2.88909	0.656529	2.89354	0.990758	5.2083
0.439659	3.08539	0.372298	5.1387	0.809958	6.84724	0.658805	2.87043	0.658383	2.87456	0.992818	5.22597
0.441651	3.11104	0.3756	5.13531	0.814334	6.76366	0.660645	2.85292	0.660226	2.85679	0.994452	5.23937
0.44366	3.13649	0.378901	5.13191	0.818655	6.67777	0.662474	2.83658	0.662057	2.84021	0.995656	5.24881
0.445685	3.16169	0.382199	5.12846	0.822921	6.58982	0.664293	2.82146	0.663878	2.82481	0.996428	5.25482
0.447725	3.18665	0.385495	5.12499	0.827129	6.49984	0.666102	2.80747	0.665689	2.81058	0.997539	5.26327
0.449782	3.2114	0.388789	5.1215	0.831279	6.40798	0.667903	2.79464	0.667492	2.79747	0.998749	5.2721
0.451855	3.23597	0.392081	5.11795	0.835369	6.31446	0.669695	2.78292	0.669286	2.7855	1.0004	5.27807
0.453943	3.26025	0.39537	5.11437	0.839398	6.21945	0.671481	2.77229	0.671073	2.77463		
0.456047	3.28428	0.398657	5.11078	0.843366	6.12318	0.67326	2.76272	0.672854	2.7648		
0.458166	3.30808	0.401942	5.10718	0.847272	6.02579	0.675034	2.75417	0.674629	2.75606		
0.460301	3.3316	0.405224	5.10357	0.851114	5.92754	0.676802	2.74671	0.676398	2.74834		
0.46245	3.35487	0.408505	5.09986	0.854894	5.82863	0.678565	2.74022	0.678163	2.74162		
0.464615	3.37787	0.411782	5.09615	0.858609	5.72929	0.680325	2.73464	0.679923	2.73587		
0.466794	3.40056	0.415057	5.09249	0.862261	5.62968	0.682082	2.7301	0.681681	2.73103		
0.468987	3.423	0.41833	5.0888	0.865848	5.53015	0.683836	2.72645	0.683435	2.72718		
0.471195	3.44515	0.421601	5.08504	0.869372	5.43093	0.685588	2.72367	0.685187	2.72425		
0.473417	3.467	0.424869	5.0812	0.872832	5.33207	0.687338	2.72175	0.686938	2.72214		
0.475653	3.48865	0.428135	5.07748	0.876228	5.23387	0.689087	2.72068	0.688688	2.72088		
0.477903	3.50998	0.431398	5.0737	0.879562	5.13658	0.690836	2.72047	0.690437	2.72046		
0.480167	3.53094	0.434659	5.06985	0.882833	5.04039	0.692586	2.72105	0.692186	2.72083		
0.482443	3.55166	0.437917	5.06602	0.886043	4.94543	0.694335	2.72235	0.693935	2.72197		
0.484734	3.57216	0.441173	5.06219	0.889192	4.85189	0.696086	2.72438	0.695686	2.72387		
0.487037	3.59233	0.444426	5.05837	0.892282	4.75995	0.697839	2.72715	0.697438	2.72647		
0.489353	3.61218	0.447677	5.05449	0.895313	4.66978	0.699593	2.7306	0.699192	2.72978		
0.491682	3.63176	0.450926	5.05059	0.898286	4.58139	0.70135	2.73477	0.700948	2.73372		
0.494023	3.65106	0.454172	5.04673	0.901204	4.49495	0.703109	2.73956	0.702707	2.73834		
0.496376	3.6701	0.457415	5.04283	0.904066	4.41066	0.704872	2.74492	0.704469	2.74362		
0.498742	3.68885	0.460656	5.03887	0.906875	4.32855	0.706639	2.75085	0.706235	2.74945		
0.50112	3.70725	0.463894	5.03498	0.909632	4.2486	0.70841	2.75741	0.708004	2.75587		
0.503509	3.72541	0.46713	5.03107	0.912338	4.17089	0.710185	2.76457	0.709778	2.76289		
0.50591	3.74336	0.470364	5.02715	0.914995	4.09557	0.711964	2.77219	0.711557	2.77039		
0.508322	3.76098	0.473595	5.02323	0.917605	4.02263	0.713749	2.78029	0.713341	2.77838		
0.510746	3.77829	0.476823	5.01925	0.920168	3.95203	0.71554	2.78896	0.71513	2.78694		
0.513181	3.79538	0.480049	5.0153	0.922686	3.88377	0.717336	2.79807	0.716924	2.79595		
0.515626	3.81215	0.483272	5.01136	0.925162	3.81797	0.719137	2.80756	0.718725	2.80538		
0.518083	3.82865	0.486492	5.00737	0.927596	3.75449	0.720946	2.81751	0.720532	2.81525		
0.52055	3.84497	0.489711	5.00341	0.92999	3.69336	0.72276	2.82789	0.722345	2.82549		
0.523027	3.86098	0.492926	4.99942	0.932345	3.63466	0.724582	2.83871	0.724165	2.83618		
0.525514	3.87669	0.496139	4.99546	0.934663	3.5782	0.726411	2.84985	0.725992	2.84726		
0.528012	3.89213	0.49935	4.99151	0.936946	3.52396	0.728246	2.86131	0.727826	2.85869		
0.530519	3.90733	0.502558	4.98752	0.939195	3.472	0.73009	2.87315	0.729668	2.87045		
0.533036	3.92231	0.505763	4.98351	0.94141	3.42225	0.731941	2.88533	0.731517	2.88249		
0.535562	3.93707	0.508966	4.97954	0.943595	3.37461	0.7338	2.89778	0.733374	2.89488		
0.538098	3.9515	0.512166	4.9756	0.94575	3.32908	0.735667	2.91054	0.73524	2.9076		
0.540644	3.96567	0.515364	4.9716	0.947876	3.28557	0.737542	2.92361	0.737113	2.92059		
0.543198	3.97971	0.518559	4.96759	0.949975	3.24402	0.739426	2.93688	0.738995	2.93378		
0.545761	3.99342	0.521751	4.96362	0.952047	3.20446	0.741319	2.95041	0.740885	2.94727		
0.548333	4.0069	0.524941	4.95967	0.954095	3.16674	0.74322	2.96419	0.742785	2.96102		
0.550913	4.02023	0.528129	4.95568	0.956119	3.13084	0.74513	2.97813	0.744693	2.97495		
0.553502	4.03321	0.531314	4.95173	0.958121	3.09671	0.74705	2.99237	0.74661	2.98914		
0.556099	4.04601	0.534496	4.94778	0.960101	3.06431	0.748978	3.00682	0.748537	3.0035		
0.558705	4.05862	0.537676	4.94379	0.962061	3.03362	0.750916	3.02136	0.750472	3.018		
0.561318	4.07092	0.540853	4.93984	0.964002	3.00447	0.752863	3.03612	0.752417	3.03269		
0.563939	4.08307	0.544028	4.93589	0.965924	2.97685	0.75482	3.05103	0.754372	3.04762		
0.566568	4.09503	0.5472	4.93196	0.96783	2.95078	0.756786	3.06608	0.756336	3.06267		
0.569205	4.1067	0.550369	4.92803	0.969719	2.92617	0.758763	3.0813	0.75831	3.07784		
0.571849	4.1182	0.553537	4.92405	0.971592	2.90294	0.760749	3.09665	0.760294	3.09312		
0.574501	4.12953	0.556701	4.92014	0.973452	2.88102	0.762744	3.11208	0.762287	3.10851		
0.577159	4.14055	0.559863	4.91628	0.975297	2.86046	0.76475	3.12765	0.764291	3.12411		
0.579825	4.15148	0.563023	4.91234	0.97713	2.84116	0.766766	3.14334	0.766304	3.13976		
0.582497	4.16219	0.56618	4.9084	0.97895	2.82302	0.768792	3.15909	0.768328	3.15544		
0.585177	4.17259	0.569334	4.90457	0.98076	2.80609	0.770828	3.17493	0.770362	3.1713		
0.587863	4.18294	0.572486	4.9007	0.982559	2.79031	0.772875	3.19086	0.772406	3.18719		
0.590555	4.19305	0.575636	4.89679	0.984348	2.77562	0.774931	3.20684	0.77446	3.20314		
