Sym0		Asym0		Sym1		Asym1		Asym2	
337  Points		334  Points		215  Points		288  Points		288  Points	
Freq (MHz)	Vgr (m/ms)	Freq (MHz)	Vgr (m/ms)	Freq (MHz)	Vgr (m/ms)	Freq (MHz)	Vgr (m/ms)	Freq (MHz)	Vgr (m/ms)
0.00474149	9.01338	0.000292971	0.472634	0.459115	-0.0272024	0.346125	0.178045	0.346133	0.197473
0.0104032	9.01248	0.000589855	0.553846	0.459098	-0.0447552	0.346237	0.262652	0.346257	0.282136
0.0160638	9.01023	0.000988766	0.71568	0.459058	-0.0798148	0.346455	0.431519	0.346487	0.450954
0.0217228	9.00702	0.00148896	0.876177	0.458997	-0.11441	0.346779	0.599565	0.346823	0.618794
0.0273793	9.00277	0.0020895	1.03509	0.458915	-0.148294	0.347209	0.766402	0.347265	0.785544
0.0330329	8.99753	0.00278934	1.19202	0.458811	-0.181298	0.347742	0.9318	0.34781	0.950768
0.0386829	8.9913	0.00358703	1.34673	0.458687	-0.213195	0.348379	1.0954	0.348459	1.11414
0.0443287	8.98405	0.00448123	1.49906	0.458543	-0.243854	0.349118	1.25695	0.34921	1.27542
0.0499696	8.97575	0.0054703	1.64881	0.458381	-0.273017	0.349958	1.4162	0.350061	1.43437
0.0556049	8.96631	0.00655263	1.79568	0.4582	-0.300491	0.350898	1.57286	0.351012	1.59075
0.0612339	8.95579	0.00772621	1.93951	0.458003	-0.326106	0.351934	1.72668	0.35206	1.74423
0.066856	8.94421	0.00898923	2.08028	0.457791	-0.349743	0.353067	1.87746	0.353203	1.89466
0.0724705	8.93136	0.0103397	2.21766	0.457564	-0.371162	0.354293	2.02508	0.35444	2.0419
0.0780764	8.91729	0.0117753	2.35163	0.457324	-0.390208	0.355611	2.16932	0.355769	2.1857
0.0836733	8.90209	0.013294	2.48215	0.457074	-0.406791	0.357018	2.31005	0.357186	2.326
0.0892601	8.88547	0.0148936	2.60902	0.456813	-0.420727	0.358513	2.44714	0.358691	2.46266
0.094836	8.86755	0.0165717	2.7323	0.456545	-0.431871	0.360093	2.58041	0.36028	2.59552
0.1004	8.84822	0.0183262	2.85186	0.456271	-0.440035	0.361755	2.70986	0.361951	2.72456
0.105952	8.82737	0.0201545	2.96778	0.455992	-0.445174	0.363497	2.83547	0.363703	2.84967
0.11149	8.80503	0.0220546	3.08001	0.455711	-0.447088	0.365317	2.95707	0.365531	2.97083
0.117014	8.78108	0.0240239	3.18845	0.45543	-0.4457	0.367212	3.0747	0.367435	3.08801
0.122522	8.75546	0.0260602	3.29333	0.455151	-0.440969	0.36918	3.18829	0.369411	3.20113
0.128013	8.72802	0.0281613	3.39457	0.454876	-0.432593	0.371217	3.29792	0.371457	3.31027
0.133487	8.69876	0.0303248	3.49221	0.454608	-0.420514	0.373323	3.40355	0.37357	3.41544
0.138941	8.66763	0.0325486	3.58635	0.454348	-0.404719	0.375493	3.50509	0.375747	3.51662
0.144376	8.63436	0.0348303	3.67696	0.454099	-0.38508	0.377726	3.6028	0.377988	3.61381
0.149789	8.5989	0.0371679	3.76421	0.453864	-0.361445	0.380019	3.69663	0.380287	3.70715
0.155179	8.56123	0.0395593	3.84812	0.453645	-0.333621	0.38237	3.78652	0.382645	3.79662
0.160544	8.52119	0.0420023	3.92881	0.453445	-0.301547	0.384776	3.87256	0.385057	3.88223
0.165884	8.47858	0.044495	4.00632	0.453267	-0.265211	0.387235	3.9549	0.387522	3.96416
0.171196	8.43324	0.0470354	4.08073	0.453112	-0.224367	0.389745	4.03353	0.390037	4.04241
0.176479	8.38515	0.0496217	4.1522	0.452985	-0.178965	0.392303	4.10856	0.392601	4.11699
0.18173	8.33415	0.0522518	4.22072	0.452887	-0.128791	0.394907	4.18007	0.395209	4.18806
0.186949	8.27996	0.0549241	4.28651	0.452823	-0.0737428	0.397554	4.24803	0.397862	4.25566
0.192132	8.22243	0.0576369	4.34954	0.452795	-0.0137278	0.400243	4.31257	0.400556	4.31982
0.197279	8.16145	0.0603884	4.40987	0.452806	0.0514409	0.402972	4.37386	0.403289	4.38067
0.202385	8.09686	0.0631771	4.46774	0.452859	0.121812	0.405738	4.43181	0.406059	4.43828
0.207451	8.0284	0.0660013	4.52318	0.452959	0.197697	0.40854	4.48655	0.408865	4.49267
0.212471	7.9559	0.0688595	4.57627	0.453108	0.279182	0.411375	4.53824	0.411703	4.54397
0.217446	7.87923	0.0717504	4.62705	0.453309	0.366322	0.414241	4.58685	0.414573	4.59226
0.22237	7.79815	0.0746725	4.67559	0.453568	0.459344	0.417137	4.63248	0.417473	4.63755
0.227242	7.71246	0.0776243	4.72204	0.453887	0.558479	0.420061	4.67518	0.420399	4.67991
0.232059	7.62201	0.0806047	4.7665	0.454269	0.663757	0.42301	4.71505	0.423352	4.71944
0.236818	7.52661	0.0836125	4.80904	0.45472	0.775237	0.425984	4.75211	0.426328	4.75624
0.241515	7.42608	0.0866463	4.84968	0.455243	0.893255	0.428981	4.78646	0.429327	4.7903
0.246147	7.32041	0.0897051	4.88847	0.455843	1.01783	0.431998	4.81824	0.432347	4.82169
0.250712	7.20945	0.0927877	4.92554	0.456522	1.1489	0.435034	4.84734	0.435385	4.85048
0.255204	7.09302	0.0958931	4.96102	0.457286	1.28664	0.438087	4.87383	0.43844	4.87676
0.259622	6.97117	0.0990202	4.99491	0.458138	1.43111	0.441157	4.89792	0.441511	4.90054
0.263962	6.84393	0.102168	5.02718	0.459084	1.58218	0.44424	4.91959	0.444597	4.92192
0.26822	6.71135	0.105336	5.05804	0.460126	1.73974	0.447337	4.9388	0.447695	4.94088
0.272394	6.57351	0.108523	5.0875	0.461269	1.90376	0.450445	4.95573	0.450804	4.9575
0.276479	6.43069	0.111727	5.11557	0.462518	2.07404	0.453563	4.97035	0.453923	4.97185
0.280473	6.28313	0.114949	5.14237	0.463875	2.25024	0.456689	4.98264	0.45705	4.98393
0.284372	6.13107	0.118188	5.16794	0.465345	2.43207	0.459823	4.99277	0.460184	4.99385
0.288175	5.97503	0.121442	5.19236	0.46693	2.61911	0.462962	5.00076	0.463324	5.00153
0.291879	5.81548	0.124711	5.21556	0.468635	2.81078	0.466105	5.00663	0.466468	5.0071
0.295481	5.65302	0.127994	5.23764	0.470462	3.00661	0.469252	5.01033	0.469614	5.01065
0.298981	5.48823	0.131291	5.25875	0.472412	3.206	0.4724	5.01198	0.472762	5.0121
0.302376	5.32182	0.134601	5.27881	0.474489	3.40813	0.475548	5.01169	0.475911	5.01152
0.305666	5.15456	0.137923	5.29786	0.476694	3.6123	0.478696	5.00938	0.479058	5.00895
0.308852	4.98723	0.141256	5.31608	0.479027	3.81759	0.481841	5.00508	0.482204	5.00445
0.311932	4.82063	0.144601	5.3334	0.48149	4.02329	0.484984	4.99887	0.485345	4.99807
0.314908	4.65561	0.147957	5.3498	0.484082	4.22849	0.488121	4.9908	0.488483	4.98977
0.317781	4.49297	0.151322	5.36542	0.486802	4.43228	0.491254	4.98085	0.491614	4.97957
0.320552	4.33347	0.154697	5.38025	0.48965	4.63398	0.494379	4.96909	0.494738	4.96764
0.323225	4.17786	0.158081	5.39428	0.492624	4.8326	0.497496	4.95558	0.497855	4.95389
0.325801	4.02678	0.161474	5.40766	0.495721	5.02747	0.500605	4.94028	0.500962	4.93834
0.328284	3.88092	0.164875	5.42031	0.49894	5.21785	0.503703	4.92326	0.504059	4.92114
0.330676	3.74077	0.168283	5.43225	0.502277	5.40318	0.50679	4.90453	0.507144	4.90228
0.332983	3.60668	0.171699	5.44363	0.505728	5.58295	0.509864	4.88414	0.510218	4.88172
0.335207	3.47918	0.175122	5.45434	0.50929	5.75653	0.512926	4.86215	0.513277	4.85951
0.337354	3.35857	0.17811	5.46324	0.51296	5.92367	0.515973	4.8386	0.516323	4.83583
0.339427	3.24488	0.180661	5.47052	0.516732	6.08413	0.519004	4.81355	0.519353	4.81054
0.34143	3.13831	0.182773	5.4762	0.520603	6.23765	0.52202	4.78691	0.522366	4.78373
0.343369	3.0389	0.184445	5.48058	0.524569	6.38401	0.525018	4.75883	0.525362	4.75555
0.345248	2.94667	0.185675	5.48371	0.528624	6.52323	0.527998	4.72941	0.52834	4.7259
0.347071	2.8616	0.186462	5.48567	0.532764	6.65534	0.53096	4.69859	0.5313	4.69495
0.348843	2.78337	0.187595	5.4885	0.536985	6.78028	0.533901	4.66639	0.534239	4.6626
0.350568	2.71198	0.188826	5.49153	0.541282	6.89828	0.536822	4.63294	0.537157	4.62898
0.35225	2.64719	0.190502	5.49549	0.545651	7.00947	0.539721	4.59832	0.540054	4.59422
0.353894	2.58866	0.192624	5.50026	0.550088	7.11397	0.542599	4.56243	0.542929	4.55828
0.355502	2.53625	0.195192	5.50586	0.554588	7.21195	0.545453	4.52552	0.545781	4.52125
0.35708	2.48975	0.198207	5.51203	0.559148	7.30361	0.548284	4.48755	0.548247	4.48814
0.35863	2.44879	0.201672	5.51872	0.563764	7.38928	0.550731	4.45369	0.550334	4.4593
0.360156	2.41305	0.205141	5.52506	0.568431	7.46914	0.552803	4.4242	0.55205	4.43498
0.361662	2.38241	0.208613	5.53094	0.573147	7.54336	0.554505	4.39942	0.5534	4.4155
0.363149	2.35644	0.212089	5.53638	0.577908	7.61217	0.555844	4.3798	0.554389	4.40119
0.364622	2.33492	0.215568	5.54143	0.58271	7.67592	0.556825	4.36502	0.555021	4.39199
0.366083	2.31762	0.219051	5.54613	0.587551	7.73488	0.557451	4.35547	0.555926	4.37847
0.367534	2.3042	0.222536	5.55049	0.591799	7.78255	0.558349	4.34184	0.556906	4.36373
0.368978	2.29442	0.226024	5.55447	0.595439	7.8204	0.559321	4.32694	0.558235	4.34369
0.370232	2.28865	0.229514	5.55814	0.598463	7.84974	0.560638	4.3065	0.559906	4.31784
0.371299	2.28564	0.233006	5.56144	0.600861	7.87204	0.562295	4.28025	0.561913	4.28631
0.37218	2.28439	0.236501	5.56445	0.602629	7.8876	0.564285	4.24834	0.564249	4.24891
0.372877	2.28434	0.239997	5.56725	0.603762	7.89727	0.5666	4.21049	0.566905	4.20545
0.37339	2.28465	0.243495	5.56964	0.605393	7.91089	0.569231	4.16649	0.569533	4.16145
0.373718	2.28513	0.246994	5.57175	0.60717	7.9252	0.571834	4.12211	0.572133	4.1169
0.374189	2.28599	0.250495	5.57373	0.609591	7.94381	0.57441	4.07727	0.574705	4.07209
0.374702	2.28715	0.253996	5.57532	0.61266	7.96588	0.576957	4.03214	0.577248	4.02692
0.3754	2.28959	0.257499	5.57666	0.616383	7.99086	0.579475	3.98682	0.579764	3.98153
0.376285	2.29327	0.261002	5.57781	0.620765	8.0175	0.581965	3.94124	0.58225	3.93602
0.377356	2.29897	0.264506	5.57872	0.625811	8.04494	0.584427	3.89563	0.584709	3.89039
0.378616	2.30724	0.268011	5.57939	0.630872	8.06903	0.586859	3.85002	0.587138	3.84477
0.380069	2.31858	0.271516	5.57983	0.635948	8.08988	0.589263	3.80445	0.589539	3.79925
0.381529	2.33186	0.275021	5.58005	0.641035	8.10758	0.591639	3.75913	0.591911	3.7539
0.382998	2.34686	0.278526	5.58011	0.646133	8.12219	0.593986	3.71398	0.594255	3.70873
0.384477	2.36354	0.282031	5.57997	0.651239	8.13384	0.596305	3.66908	0.59657	3.66393
0.385968	2.38177	0.285536	5.57958	0.656352	8.14259	0.598596	3.62457	0.598858	3.61948
0.38747	2.40136	0.289041	5.579	0.661469	8.14855	0.600858	3.58049	0.601117	3.57547
0.388984	2.42224	0.292545	5.57834	0.666589	8.15169	0.603094	3.53699	0.60335	3.53201
0.390513	2.44425	0.296049	5.57746	0.67171	8.15217	0.605302	3.49405	0.605555	3.4891
0.392055	2.46732	0.299552	5.57637	0.67683	8.14997	0.607483	3.45167	0.607733	3.44684
0.393612	2.49134	0.303054	5.57512	0.681948	8.14507	0.609638	3.41011	0.609885	3.40539
0.395185	2.51623	0.306556	5.57373	0.687063	8.13762	0.611767	3.36929	0.612011	3.36463
0.396774	2.54192	0.310057	5.57222	0.692172	8.12754	0.613871	3.32927	0.614112	3.32469
0.398378	2.56835	0.313556	5.57054	0.697273	8.11489	0.61595	3.29014	0.616188	3.28571
0.4	2.59536	0.317055	5.56867	0.702366	8.09966	0.618004	3.25189	0.61824	3.24759
0.401639	2.62293	0.320552	5.56665	0.707449	8.08189	0.620035	3.21468	0.620268	3.21044
0.403295	2.65101	0.324048	5.56461	0.71252	8.06154	0.622043	3.17847	0.622273	3.17432
0.404969	2.67955	0.327543	5.56234	0.717577	8.03855	0.624028	3.14326	0.624256	3.13932
0.406662	2.70848	0.331036	5.5599	0.722619	8.01299	0.625992	3.1092	0.626217	3.10535
0.408372	2.73767	0.334528	5.55743	0.727643	7.98483	0.627934	3.07625	0.628157	3.07251
0.410101	2.76715	0.338018	5.55484	0.73265	7.95397	0.629857	3.04446	0.630077	3.04088
0.411848	2.79688	0.341506	5.55208	0.737636	7.92045	0.631759	3.01384	0.631977	3.0104
0.413615	2.82679	0.344993	5.54917	0.7426	7.88425	0.633643	2.98441	0.633859	2.98109
0.4154	2.85684	0.348478	5.54615	0.747541	7.84529	0.635508	2.95622	0.635722	2.95302
0.417204	2.88697	0.351961	5.54306	0.752456	7.80359	0.637357	2.9292	0.637569	2.92622
0.419027	2.91719	0.355442	5.53988	0.757345	7.75906	0.639188	2.90353	0.639399	2.9006
0.420869	2.94751	0.35892	5.53656	0.762204	7.7117	0.641004	2.87906	0.641213	2.87627
0.42273	2.97777	0.362397	5.53316	0.767033	7.66151	0.642805	2.85581	0.643012	2.85325
0.42461	3.00794	0.365872	5.52961	0.771829	7.60844	0.644592	2.83386	0.644797	2.83141
0.426508	3.03813	0.369344	5.52599	0.776591	7.55242	0.646366	2.81316	0.646569	2.81088
0.428426	3.06827	0.372814	5.52228	0.781317	7.49344	0.648126	2.79374	0.648329	2.7916
0.430363	3.09833	0.376282	5.51847	0.786005	7.43158	0.649875	2.77561	0.650076	2.77354
0.432319	3.12825	0.379747	5.51455	0.790653	7.36675	0.651613	2.75867	0.651813	2.7568
0.434293	3.15798	0.383209	5.51053	0.79526	7.29893	0.653341	2.74297	0.65354	2.74131
0.436286	3.18757	0.38667	5.50651	0.799823	7.22824	0.655059	2.72855	0.655257	2.72699
0.438298	3.21697	0.390127	5.50233	0.804341	7.1546	0.656769	2.71532	0.656965	2.71386
0.440328	3.24623	0.393582	5.49801	0.808811	7.07802	0.658471	2.70332	0.658666	2.70197
0.442376	3.27525	0.397034	5.49368	0.813233	6.99861	0.660165	2.69249	0.66036	2.6913
0.444442	3.30405	0.400484	5.48923	0.817604	6.91643	0.661853	2.68283	0.662047	2.68178
0.446527	3.33268	0.403931	5.48473	0.821922	6.83156	0.663536	2.67431	0.663729	2.67344
0.448629	3.36101	0.407374	5.48014	0.826186	6.7441	0.665213	2.66696	0.665406	2.66617
0.450749	3.38908	0.410815	5.47545	0.830395	6.65414	0.666886	2.66072	0.667079	2.66004
0.452887	3.41686	0.414253	5.47072	0.834546	6.5618	0.668556	2.65549	0.668748	2.65502
0.455042	3.44443	0.417688	5.46591	0.838638	6.46717	0.670222	2.65141	0.670414	2.65104
0.457214	3.47175	0.42112	5.46101	0.84267	6.37049	0.671886	2.64839	0.672078	2.64813
0.459403	3.49866	0.424549	5.456	0.846641	6.2719	0.673549	2.64639	0.673741	2.64618
0.461609	3.52537	0.427974	5.45095	0.85055	6.17166	0.675211	2.64539	0.675403	2.64526
0.463832	3.55181	0.431397	5.44581	0.854395	6.06988	0.676873	2.64532	0.677064	2.6454
0.466072	3.57791	0.434816	5.44064	0.858175	5.96684	0.678534	2.64622	0.678726	2.64639
0.468327	3.60367	0.438232	5.43539	0.861891	5.86275	0.680197	2.64807	0.680389	2.6483
0.470599	3.62915	0.441644	5.43005	0.865541	5.75785	0.681861	2.65085	0.682053	2.65121
0.472886	3.65427	0.445054	5.42466	0.869125	5.65244	0.683527	2.65441	0.683719	2.65495
0.47519	3.67911	0.448459	5.4192	0.872642	5.54661	0.685196	2.65891	0.685388	2.65948
0.477509	3.7037	0.451862	5.4137	0.876093	5.44084	0.686868	2.66425	0.687061	2.66489
0.479843	3.72788	0.455261	5.40812	0.879477	5.33527	0.688543	2.67034	0.688736	2.67113
0.482192	3.75171	0.458656	5.40245	0.882795	5.23013	0.690222	2.67725	0.690416	2.67811
0.484556	3.77525	0.462048	5.39669	0.886048	5.12573	0.691906	2.68494	0.692101	2.68583
0.486935	3.79853	0.465436	5.39093	0.889235	5.02226	0.693596	2.69334	0.69379	2.69431
0.489328	3.82142	0.46882	5.38511	0.892357	4.9199	0.69529	2.70244	0.695486	2.70355
0.491736	3.84394	0.472201	5.37922	0.895416	4.81896	0.696991	2.7122	0.697187	2.71338
0.494157	3.86623	0.475578	5.37328	0.898411	4.71966	0.698697	2.72267	0.698895	2.72389
0.496593	3.88819	0.478951	5.36727	0.901345	4.62205	0.700411	2.73377	0.700609	2.73512
0.499042	3.90975	0.482321	5.36123	0.904218	4.52642	0.702132	2.74546	0.702331	2.74688
0.501504	3.93097	0.485687	5.35505	0.907032	4.43287	0.70386	2.75783	0.70406	2.75922
0.50398	3.95195	0.489049	5.34887	0.909787	4.34156	0.705597	2.77069	0.705797	2.77223
0.506469	3.9726	0.492406	5.34268	0.912486	4.25261	0.707341	2.78413	0.707543	2.78575
0.508971	3.99286	0.495761	5.33644	0.91513	4.16604	0.709094	2.79813	0.709297	2.79973
0.511485	4.01288	0.499111	5.33011	0.91772	4.08202	0.710856	2.81257	0.71106	2.81432
0.514012	4.03256	0.502457	5.32369	0.920258	4.00057	0.712628	2.82761	0.712832	2.82939
0.516552	4.0519	0.505799	5.31727	0.922746	3.92177	0.714409	2.84306	0.714614	2.84485
0.519103	4.07097	0.509137	5.31081	0.925185	3.8457	0.716199	2.85893	0.716406	2.86078
0.521666	4.08968	0.512471	5.30431	0.927577	3.77231	0.718	2.87534	0.718208	2.87722
0.524241	4.10806	0.515801	5.29775	0.929924	3.70156	0.719812	2.89208	0.720021	2.89408
0.526827	4.12621	0.519126	5.29116	0.932227	3.63353	0.721634	2.90924	0.721844	2.91125
0.529424	4.14403	0.522448	5.28455	0.934489	3.56824	0.723467	2.92679	0.723678	2.9288
0.532033	4.16152	0.525765	5.27782	0.93671	3.5056	0.725311	2.94469	0.725524	2.94681
0.534653	4.17874	0.529078	5.27109	0.938893	3.44561	0.727166	2.96298	0.727381	2.9651
0.537283	4.19566	0.532387	5.26436	0.941039	3.38818	0.729033	2.98158	0.729249	2.9837
0.539924	4.21232	0.535692	5.25757	0.943149	3.33323	0.730912	3.00049	0.731129	3.00267
0.542575	4.22864	0.538992	5.2507	0.945226	3.28088	0.732802	3.01967	0.733021	3.02193
0.545236	4.24467	0.542288	5.2439	0.947271	3.23102	0.734705	3.0392	0.734925	3.04145
0.547907	4.26046	0.54558	5.23702	0.949285	3.18344	0.736621	3.05896	0.736842	3.0612
0.550588	4.2759	0.548868	5.23005	0.95127	3.13825	0.738548	3.07894	0.738771	3.08129
0.553279	4.29112	0.552151	5.22314	0.953228	3.09534	0.740489	3.0992	0.740713	3.1016
0.555979	4.30606	0.55543	5.21616	0.955159	3.0546	0.742442	3.1197	0.742668	3.12207
0.558689	4.3207	0.558704	5.20914	0.957065	3.01598	0.744408	3.14044	0.744635	3.14279
0.561407	4.33513	0.561974	5.20215	0.958948	2.9795	0.746387	3.16129	0.746616	3.16375
0.564135	4.3493	0.565239	5.19512	0.960808	2.94503	0.748379	3.18236	0.74861	3.18481
0.566871	4.36313	0.5685	5.18803	0.962648	2.91241	0.750385	3.20365	0.750617	3.2061
0.569616	4.37672	0.571757	5.18095	0.964467	2.88177	0.752404	3.2251	0.752638	3.22756
0.57237	4.39009	0.575009	5.17388	0.966268	2.85287	0.754437	3.24664	0.754672	3.24915
0.575132	4.40318	0.578257	5.16681	0.968051	2.82576	0.756483	3.26838	0.75672	3.27086
0.577902	4.41603	0.5815	5.15969	0.969818	2.80037	0.758543	3.29022	0.758781	3.29274
0.580679	4.42864	0.584739	5.15255	0.971569	2.77659	0.760616	3.31212	0.760856	3.31471
0.583465	4.44103	0.587973	5.14545	0.973306	2.75438	0.762704	3.3342	0.762945	3.33672
0.586259	4.45315	0.591203	5.13831	0.97503	2.73366	0.764805	3.35637	0.765048	3.35892
0.58906	4.46502	0.594429	5.13121	0.976741	2.71439	0.76692	3.37865	0.767165	3.3812
0.591868	4.47666	0.59765	5.12408	0.97844	2.69655	0.76905	3.40093	0.769296	3.40354
0.594684	4.48807	0.600866	5.11692	0.980128	2.68009	0.771193	3.42331	0.771441	3.42589
0.597506	4.49932	0.604078	5.10982	0.981807	2.66485	0.77335	3.44574	0.7736	3.44832
0.600336	4.51032	0.607285	5.10273	0.983476	2.65092	0.775522	3.46815	0.775773	3.47077
0.603173	4.52104	0.610488	5.09566	0.985137	2.63821	0.777707	3.4907	0.77796	3.4933
0.606016	4.53155	0.613687	5.08854	0.986791	2.62663	0.779907	3.51328	0.780162	3.51586
0.608866	4.54192	0.616881	5.08145	0.988437	2.61617	0.782121	3.53581	0.782377	3.53838
0.611722	4.55204	0.620071	5.07443	0.990077	2.60676	0.784349	3.55832	0.784607	3.56094
0.614584	4.56194	0.623256	5.06744	0.991712	2.59836	0.786591	3.58087	0.786851	3.58346
0.617453	4.57162	0.626437	5.06041	0.993342	2.59101	0.788848	3.60345	0.789109	3.60602
0.620328	4.58112	0.629614	5.05343	0.994967	2.58462	0.791118	3.62598	0.791381	3.6286
0.623208	4.59044	0.632786	5.04651	0.996589	2.57909	0.793403	3.64849	0.793667	3.65108
0.626095	4.59955	0.635953	5.03958	0.998207	2.57442	0.795702	3.67099	0.795968	3.67356
0.628987	4.60846	0.639117	5.03269	0.999823	2.57062	0.798015	3.69343	0.798282	3.696
0.631884	4.61714	0.642276	5.02587	1.00144	2.56896	0.800342	3.71578	0.800611	3.71835
0.634787	4.62572	0.645431	5.01905			0.802683	3.73809	0.802954	3.74066
0.637696	4.63403	0.648581	5.01226			0.805038	3.76038	0.80531	3.76295
0.640609	4.64221	0.651728	5.00556			0.807407	3.78261	0.807681	3.78517
0.643528	4.65021	0.65487	4.99889			0.80979	3.8047	0.810066	3.80726
0.646451	4.65801	0.658008	4.9923			0.812187	3.82677	0.812464	3.82927
0.649379	4.66566	0.661142	4.98569			0.814598	3.84872	0.814876	3.85125
0.652312	4.67307	0.664271	4.97918			0.817022	3.87056	0.817303	3.87311
0.65525	4.68041	0.667397	4.97278			0.81946	3.89234	0.819742	3.89479
0.658192	4.68756	0.670519	4.96637			0.821912	3.91399	0.822196	3.91644
0.661139	4.69444	0.673636	4.96002			0.824378	3.93551	0.824662	3.93802
0.66409	4.70126	0.67675	4.95374			0.826856	3.95697	0.827143	3.95945
0.667045	4.70798	0.67986	4.94751			0.829349	3.9783	0.829637	3.98071
0.670005	4.71443	0.682965	4.94141			0.831854	3.99939	0.832144	4.00188
0.672968	4.72076	0.686068	4.93537			0.834373	4.02047	0.834664	4.02294
0.675935	4.72696	0.689166	4.92936			0.836905	4.04144	0.837198	4.04379
0.678907	4.73299	0.69226	4.92348			0.83945	4.06214	0.839744	4.06454
0.681881	4.73889	0.695351	4.9176			0.842008	4.08275	0.842304	4.08513
0.68486	4.74461	0.698438	4.91184			0.84458	4.10327	0.844877	4.10558
0.687842	4.75024	0.701522	4.90619			0.847163	4.12358	0.847462	4.12591
0.690828	4.75566	0.704602	4.9006			0.84976	4.14368	0.85006	4.14601
0.693817	4.76098	0.707678	4.89508			0.852369	4.16372	0.852671	4.166
0.696809	4.76619	0.710752	4.88972			0.854991	4.18357	0.855294	4.18583
