Sym0		Asym0		Sym1		Sym2		Asym1		Asym2		Asym3	
343  Points		344  Points		201  Points		140  Points		289  Points		289  Points		143  Points	
Freq (MHz)	Vgr (m/ms)	Freq (MHz)	Vgr (m/ms)	Freq (MHz)	Vgr (m/ms)	Freq (MHz)	Vgr (m/ms)	Freq (MHz)	Vgr (m/ms)	Freq (MHz)	Vgr (m/ms)	Freq (MHz)	Vgr (m/ms)
0.00436912	9.01336	5.43199e-005	0.256791	0.459115	-0.0413619	0.59512	0.109551	0.297571	0.186003	0.297607	0.273041	0.892583	-0.560113
0.0104615	9.01241	0.000227891	0.344653	0.459087	-0.0736741	0.595194	0.193738	0.297697	0.288888	0.297791	0.375768	0.892204	-0.753284
0.0165525	9.00997	0.000520238	0.519802	0.459015	-0.1378	0.595382	0.361598	0.297961	0.494164	0.298115	0.58057	0.891565	-1.11019
0.0226415	9.00639	0.000930582	0.693523	0.458901	-0.200731	0.595683	0.528415	0.298365	0.698157	0.298576	0.783818	0.890704	-1.40572
0.0287278	9.00157	0.00145777	0.865302	0.458744	-0.26188	0.596097	0.693652	0.298905	0.900392	0.299175	0.985066	0.889664	-1.63971
0.0348103	8.99567	0.00210034	1.03461	0.458547	-0.320778	0.596621	0.856739	0.299582	1.10032	0.299908	1.18393	0.888487	-1.81885
0.0408885	8.9886	0.0028564	1.20108	0.45831	-0.376887	0.597255	1.01734	0.300393	1.29746	0.300775	1.37985	0.887205	-1.95249
0.0469615	8.98022	0.00372401	1.36442	0.458037	-0.429642	0.597996	1.1751	0.301336	1.49143	0.301773	1.57239	0.885847	-2.04996
0.0530284	8.97073	0.00470089	1.52412	0.45773	-0.478818	0.598843	1.32959	0.302409	1.68191	0.302901	1.76122	0.884434	-2.11911
0.0590885	8.95993	0.00578438	1.67997	0.45739	-0.524067	0.599794	1.48046	0.303609	1.86853	0.304154	1.94606	0.882983	-2.16626
0.0651408	8.94781	0.00697194	1.83174	0.457021	-0.564893	0.600845	1.62765	0.304935	2.05084	0.305531	2.12652	0.881506	-2.19643
0.0711846	8.93438	0.00826062	1.97912	0.456626	-0.601114	0.601994	1.77078	0.306382	2.2286	0.307029	2.3023	0.880013	-2.21337
0.0772187	8.91953	0.0096474	2.12192	0.456209	-0.632569	0.603238	1.90976	0.307947	2.40169	0.308644	2.47335	0.878514	-2.21979
0.0832424	8.90326	0.0111291	2.26003	0.455771	-0.65893	0.604576	2.04445	0.309629	2.56987	0.310373	2.63938	0.877013	-2.21788
0.0892545	8.88546	0.0127026	2.3934	0.455318	-0.680155	0.606002	2.17481	0.311422	2.7329	0.312212	2.80021	0.875515	-2.20932
0.0952541	8.8661	0.0143646	2.52182	0.454852	-0.696154	0.607516	2.30086	0.313323	2.89077	0.314158	2.9559	0.874026	-2.19533
0.10124	8.84507	0.0161117	2.64529	0.454377	-0.706749	0.609113	2.42243	0.315329	3.04336	0.316208	3.10626	0.872548	-2.17685
0.107211	8.82238	0.0179406	2.76392	0.453896	-0.711886	0.61079	2.53966	0.317437	3.19063	0.318357	3.25119	0.871083	-2.15462
0.113167	8.79791	0.0198481	2.87761	0.453414	-0.71156	0.612546	2.65268	0.319643	3.33252	0.320603	3.39083	0.869635	-2.12925
0.119105	8.77147	0.0218307	2.98647	0.452934	-0.70576	0.614376	2.76141	0.321942	3.46902	0.322941	3.52512	0.868205	-2.10121
0.125024	8.74312	0.0238854	3.09051	0.45246	-0.694462	0.616279	2.86599	0.324332	3.60027	0.325368	3.6541	0.866794	-2.07079
0.130924	8.71269	0.0260086	3.18976	0.451996	-0.67762	0.618251	2.96661	0.326809	3.72627	0.327881	3.77788	0.865405	-2.0383
0.136802	8.67998	0.0281974	3.28446	0.451544	-0.655243	0.620289	3.06328	0.32937	3.84703	0.330475	3.89651	0.864039	-2.00402
0.142658	8.64496	0.0304487	3.37474	0.45111	-0.62735	0.622392	3.15615	0.33201	3.96266	0.333148	4.00999	0.862696	-1.96808
0.148489	8.60751	0.0327595	3.46059	0.450696	-0.593976	0.624556	3.24538	0.334726	4.07328	0.335896	4.11854	0.861378	-1.93072
0.154294	8.56746	0.0351269	3.54214	0.450307	-0.554992	0.626779	3.33107	0.337516	4.17901	0.338716	4.22226	0.860086	-1.89204
0.160071	8.52461	0.037548	3.61962	0.449946	-0.510441	0.629059	3.4134	0.340376	4.27992	0.341604	4.32118	0.858821	-1.85204
0.165818	8.47888	0.0400201	3.69322	0.449617	-0.460409	0.631393	3.49245	0.343302	4.37615	0.344557	4.41542	0.857583	-1.8109
0.171533	8.43003	0.0425406	3.76298	0.449324	-0.404664	0.63378	3.56836	0.346292	4.46785	0.347573	4.50518	0.856373	-1.76871
0.177214	8.37787	0.045107	3.829	0.44907	-0.343251	0.636217	3.64134	0.349342	4.55505	0.350648	4.5906	0.855192	-1.72541
0.182859	8.3223	0.0477168	3.89158	0.448859	-0.276152	0.638703	3.71138	0.352449	4.63796	0.353779	4.67179	0.85404	-1.68112
0.188465	8.26306	0.0503678	3.95081	0.448696	-0.203235	0.641235	3.77867	0.355612	4.71677	0.356963	4.74877	0.852919	-1.63595
0.194029	8.19991	0.0530577	4.00679	0.448585	-0.124438	0.643811	3.84338	0.358826	4.79141	0.360198	4.82176	0.851829	-1.58982
0.19955	8.13266	0.0557844	4.05968	0.448528	-0.0395827	0.64643	3.90558	0.362089	4.86212	0.363482	4.8909	0.85077	-1.5428
0.205023	8.06105	0.0585458	4.10964	0.448531	0.0513317	0.649091	3.96535	0.365399	4.92906	0.36681	4.9562	0.849743	-1.49489
0.210447	7.98487	0.06134	4.15686	0.448598	0.148457	0.651791	4.02281	0.368752	4.99225	0.370182	5.01784	0.848749	-1.44611
0.215818	7.9039	0.0641652	4.20143	0.448732	0.251948	0.654529	4.07807	0.372147	5.0519	0.373594	5.076	0.847788	-1.39652
0.221132	7.81786	0.0670197	4.24342	0.448938	0.361909	0.657304	4.13123	0.375582	5.10801	0.377044	5.13073	0.846861	-1.34599
0.226386	7.72656	0.0699016	4.28297	0.449221	0.478551	0.660114	4.18244	0.379053	5.16077	0.380529	5.18205	0.845968	-1.29471
0.231577	7.62978	0.0728096	4.32029	0.449585	0.601894	0.662958	4.23165	0.382558	5.21025	0.384049	5.23018	0.845111	-1.24263
0.2367	7.52727	0.075742	4.35544	0.450035	0.732175	0.665834	4.27898	0.386096	5.25651	0.3876	5.27514	0.844289	-1.18965
0.241753	7.41886	0.0786975	4.3885	0.450575	0.869468	0.668742	4.32458	0.389664	5.29966	0.39118	5.31701	0.843503	-1.13579
0.246729	7.30442	0.0816746	4.41959	0.45121	1.01382	0.67168	4.36854	0.39326	5.33982	0.394788	5.35593	0.842753	-1.08116
0.251627	7.18377	0.0846721	4.44884	0.451946	1.16532	0.674648	4.41081	0.396883	5.37714	0.39842	5.39196	0.842041	-1.02572
0.256441	7.05685	0.0876887	4.47635	0.452786	1.32406	0.677643	4.45145	0.400529	5.4115	0.402077	5.42516	0.841367	-0.969353
0.261167	6.92366	0.0907234	4.5022	0.453735	1.48999	0.680665	4.49063	0.404198	5.44307	0.405754	5.45561	0.840731	-0.912148
0.265801	6.78429	0.093775	4.52645	0.4548	1.66294	0.683714	4.5284	0.407888	5.47197	0.409452	5.48341	0.840134	-0.854072
0.270338	6.6388	0.0968425	4.54918	0.455983	1.84288	0.686787	4.56477	0.411596	5.49818	0.413167	5.50851	0.839576	-0.795164
0.274775	6.48734	0.0999248	4.57053	0.457291	2.02962	0.689885	4.59974	0.41532	5.52183	0.416899	5.53106	0.839059	-0.735396
0.279108	6.33032	0.103021	4.59051	0.458727	2.22269	0.693005	4.63345	0.41906	5.54299	0.420644	5.5511	0.838582	-0.67472
0.283333	6.1681	0.10613	4.60928	0.460296	2.42175	0.696148	4.66593	0.422814	5.56156	0.424403	5.56869	0.838146	-0.613133
0.287446	6.00117	0.109252	4.62681	0.462001	2.62643	0.699313	4.69717	0.426579	5.57772	0.428172	5.58387	0.837753	-0.550635
0.291445	5.83014	0.112385	4.64321	0.463846	2.83601	0.702498	4.72726	0.430354	5.59156	0.431951	5.59666	0.837402	-0.487224
0.295328	5.65569	0.115529	4.65853	0.465835	3.04971	0.705703	4.75622	0.434138	5.60299	0.435738	5.6071	0.837094	-0.422895
0.299091	5.4787	0.118683	4.67283	0.467969	3.26681	0.708928	4.78407	0.437928	5.61211	0.439531	5.61526	0.83683	-0.357637
0.302734	5.29998	0.121846	4.68617	0.470251	3.48649	0.712171	4.8109	0.441724	5.61895	0.443329	5.62119	0.836611	-0.291431
0.306256	5.12044	0.125018	4.69862	0.472682	3.70768	0.715431	4.83668	0.445524	5.62354	0.44713	5.62486	0.836436	-0.224237
0.309656	4.94117	0.127788	4.70879	0.475263	3.92946	0.718709	4.8615	0.449326	5.62596	0.450933	5.62635	0.836308	-0.156079
0.312936	4.76313	0.130155	4.71694	0.477994	4.15072	0.722003	4.8854	0.45313	5.62626	0.454736	5.6257	0.836225	-0.0869985
0.316095	4.58726	0.132115	4.72336	0.480874	4.37042	0.725313	4.90835	0.456932	5.62433	0.458538	5.62288	0.83619	-0.0168733
0.319137	4.41452	0.133666	4.72833	0.483902	4.5875	0.728639	4.93043	0.460733	5.62026	0.462337	5.61796	0.836203	0.0542316
0.322063	4.24591	0.134808	4.7317	0.487076	4.80099	0.731979	4.95157	0.46453	5.61415	0.466133	5.61093	0.836263	0.126276
0.324877	4.08224	0.135539	4.73385	0.490393	5.00999	0.735332	4.97195	0.468322	5.60597	0.469923	5.60191	0.836373	0.199392
0.327581	3.92431	0.136591	4.73697	0.493849	5.21356	0.7387	4.9915	0.472108	5.59577	0.473706	5.59085	0.836533	0.27354
0.330182	3.7727	0.137735	4.74019	0.497441	5.41102	0.74208	5.01021	0.475887	5.58353	0.477481	5.57772	0.836743	0.348642
0.332682	3.62799	0.139292	4.7444	0.501164	5.6016	0.745473	5.02825	0.479656	5.56926	0.481246	5.56265	0.837004	0.424743
0.335086	3.49062	0.141263	4.74951	0.505013	5.78487	0.748878	5.04555	0.483416	5.55304	0.485	5.54564	0.837317	0.501833
0.3374	3.36085	0.143649	4.75547	0.508984	5.9604	0.752294	5.06208	0.487163	5.53493	0.488743	5.52667	0.837683	0.579992
0.339629	3.23901	0.146452	4.7619	0.513071	6.12773	0.755721	5.07797	0.490898	5.51487	0.492472	5.50579	0.838101	0.659179
0.341779	3.12516	0.149673	4.76884	0.517268	6.28682	0.759158	5.0932	0.494619	5.49291	0.496186	5.4831	0.838574	0.739311
0.343854	3.01922	0.152899	4.77513	0.521569	6.43752	0.762606	5.1078	0.498324	5.46909	0.499884	5.45853	0.839101	0.820424
0.34586	2.92121	0.156129	4.78095	0.52597	6.57969	0.766063	5.12187	0.502012	5.44345	0.503092	5.43564	0.839683	0.902489
0.347803	2.83101	0.159362	4.78629	0.530464	6.71351	0.76953	5.13525	0.505211	5.41971	0.505817	5.4151	0.840321	0.985552
0.349688	2.74832	0.162599	4.79112	0.535046	6.83901	0.773005	5.1481	0.507928	5.39834	0.508062	5.39732	0.841015	1.0695
0.351519	2.67301	0.165839	4.79556	0.539709	6.95644	0.776489	5.16046	0.510165	5.38008	0.509831	5.3828	0.841767	1.1544
0.353301	2.60475	0.169082	4.79955	0.54445	7.06602	0.779982	5.17236	0.511929	5.36498	0.511129	5.37203	0.842576	1.24022
0.35504	2.54326	0.172327	4.80311	0.549262	7.16785	0.783482	5.18374	0.513223	5.35386	0.511959	5.36486	0.843443	1.32684
0.356739	2.48822	0.175575	4.80635	0.55414	7.26239	0.786989	5.19469	0.514049	5.34656	0.513149	5.35439	0.844369	1.41437
0.358403	2.43922	0.178825	4.80923	0.559079	7.3498	0.790504	5.20528	0.515236	5.33566	0.51444	5.34299	0.845355	1.5026
0.360037	2.39594	0.182076	4.81168	0.564075	7.43042	0.794026	5.21546	0.516522	5.32387	0.516192	5.32689	0.846401	1.59154
0.361642	2.35815	0.185329	4.81392	0.569124	7.50453	0.797555	5.22533	0.518267	5.30737	0.518399	5.30606	0.847507	1.68128
0.363224	2.32546	0.188584	4.81584	0.57422	7.5725	0.80109	5.23486	0.520467	5.28592	0.521057	5.28004	0.848674	1.77163
0.364786	2.29744	0.19184	4.81741	0.578697	7.62706	0.804631	5.24413	0.523114	5.25926	0.524158	5.24839	0.849902	1.86256
0.36633	2.27381	0.195096	4.8188	0.582538	7.67004	0.808179	5.25318	0.526203	5.22688	0.527693	5.21074	0.851191	1.95406
0.36786	2.25441	0.198354	4.81995	0.58573	7.70332	0.811733	5.26199	0.529723	5.18824	0.531202	5.17152	0.852543	2.04601
0.369378	2.23883	0.201612	4.82078	0.588263	7.72825	0.815292	5.27074	0.533216	5.14822	0.534684	5.13086	0.853957	2.13834
0.370886	2.22676	0.204871	4.82144	0.590131	7.74584	0.818858	5.27934	0.536682	5.10676	0.538138	5.08882	0.855434	2.23102
0.372388	2.21795	0.20813	4.82193	0.591329	7.75668	0.822429	5.28786	0.54012	5.06392	0.541563	5.04539	0.856973	2.32401
0.373885	2.21226	0.211389	4.82212	0.593053	7.77153	0.826006	5.29642	0.543528	5.01978	0.544959	5.00076	0.858576	2.41712
0.375379	2.20934	0.214649	4.82217	0.594931	7.7872	0.829589	5.30497	0.546906	4.97434	0.548324	4.95487	0.860241	2.51034
0.376871	2.20897	0.217908	4.82209	0.597491	7.80775	0.833178	5.31357	0.550253	4.9278	0.551657	4.90785	0.861969	2.6036
0.378365	2.21105	0.221167	4.8218	0.600738	7.83185	0.836772	5.32231	0.553568	4.88019	0.554958	4.85975	0.863761	2.69673
0.37986	2.21532	0.224426	4.8213	0.604678	7.8586	0.840373	5.33129	0.55685	4.8315	0.558227	4.81062	0.865615	2.78972
0.38136	2.22153	0.227685	4.82069	0.609315	7.88696	0.843979	5.34058	0.560099	4.78192	0.561461	4.76066	0.867532	2.88241
0.38267	2.22833	0.230943	4.82004	0.614657	7.91547	0.847592	5.35007	0.563314	4.73144	0.564662	4.70988	0.869511	2.97481
0.38379	2.23527	0.234201	4.81916	0.620016	7.93992	0.851212	5.35996	0.566495	4.68015	0.567828	4.6583	0.871553	3.06672
0.38472	2.24169	0.237458	4.81816	0.62539	7.96037	0.854838	5.37036	0.569641	4.6282	0.57096	4.60605	0.873657	3.15807
0.385457	2.24703	0.240714	4.81706	0.630777	7.97691	0.858472	5.38115	0.572752	4.57568	0.574055	4.55333	0.875823	3.2488
0.386	2.25149	0.24397	4.81585	0.636174	7.98977	0.862113	5.39255	0.575827	4.52266	0.577115	4.50011	0.878049	3.33869
0.386348	2.25423	0.247225	4.81459	0.641578	7.99898	0.865762	5.40464	0.578866	4.4692	0.580139	4.4465	0.880336	3.4278
0.386849	2.25826	0.250479	4.81315	0.646987	8.00464	0.869419	5.41742	0.581868	4.41541	0.583126	4.39264	0.882683	3.51598
0.387394	2.26308	0.253731	4.81162	0.652399	8.00702	0.873085	5.43097	0.584835	4.36141	0.586077	4.3386	0.885089	3.60308
0.388138	2.26964	0.256983	4.8101	0.657811	8.00599	0.876761	5.44544	0.587764	4.30735	0.588991	4.28447	0.887554	3.68906
0.389083	2.27855	0.260234	4.80843	0.663222	8.00168	0.880447	5.46085	0.590658	4.25322	0.591869	4.23035	0.890076	3.77378
0.39023	2.28972	0.263483	4.80669	0.668628	7.99428	0.884143	5.47724	0.593514	4.19909	0.59471	4.17634	0.892655	3.85721
0.391582	2.30365	0.266732	4.80491	0.674029	7.98367	0.887851	5.49476	0.596334	4.14523	0.597514	4.12252	0.89529	3.93926
0.393145	2.32056	0.269979	4.80306	0.679421	7.96993	0.891571	5.51346	0.599118	4.09159	0.600283	4.06901	0.897981	4.01977
0.394719	2.3383	0.273225	4.80113	0.684803	7.95322	0.895304	5.53339	0.601865	4.03827	0.603015	4.01591	0.900725	4.09871
0.396306	2.35686	0.276469	4.79915	0.690173	7.9335	0.899051	5.55468	0.604577	3.98546	0.605712	3.96326	0.903521	4.17603
0.397905	2.37608	0.279712	4.79715	0.695528	7.91072	0.902813	5.57736	0.607253	3.93316	0.608373	3.91119	0.90637	4.25162
0.399518	2.39589	0.282954	4.79504	0.700867	7.885	0.906591	5.60153	0.609894	3.88142	0.610999	3.85977	0.909269	4.32547
0.401144	2.4163	0.286195	4.79293	0.706187	7.85628	0.910386	5.62725	0.6125	3.83036	0.613591	3.80902	0.912217	4.39745
0.402784	2.43725	0.289434	4.79076	0.711487	7.82461	0.914198	5.65456	0.615072	3.7801	0.616148	3.75911	0.915214	4.46751
0.404439	2.45863	0.292671	4.78857	0.716765	7.7901	0.91803	5.68354	0.61761	3.73063	0.618672	3.71008	0.918257	4.53565
0.406108	2.48038	0.295907	4.78631	0.722018	7.75255	0.921882	5.71424	0.620115	3.68213	0.621164	3.66194	0.921345	4.60175
0.407792	2.50241	0.299141	4.78407	0.727245	7.71207	0.925755	5.74677	0.622588	3.6346	0.623623	3.61475	0.924477	4.66582
0.409491	2.52473	0.302374	4.78179	0.732444	7.66876	0.92965	5.78103	0.625029	3.58802	0.62605	3.56869	0.927653	4.72782
0.411205	2.5473	0.305606	4.77943	0.737612	7.62247	0.93357	5.81715	0.627438	3.54257	0.628447	3.5237	0.930869	4.78771
0.412935	2.57004	0.308835	4.7771	0.742748	7.57328	0.937514	5.85516	0.629818	3.49824	0.630814	3.47986	0.934125	4.84541
0.414679	2.59297	0.312063	4.77472	0.74785	7.52128	0.941485	5.89493	0.632167	3.45503	0.633151	3.43719	0.937419	4.90093
0.41644	2.61595	0.31529	4.77232	0.752916	7.46635	0.945483	5.93662	0.634488	3.41308	0.63546	3.39576	0.94075	4.95434
0.418216	2.63904	0.318515	4.7699	0.757943	7.40855	0.94951	5.98022	0.636781	3.37242	0.637742	3.35562	0.944116	5.00543
0.420007	2.6622	0.321738	4.76749	0.762931	7.348	0.953568	6.02553	0.639047	3.33296	0.639997	3.31666	0.947517	5.0543
0.421815	2.68539	0.32496	4.76502	0.767877	7.28466	0.957656	6.07263	0.641287	3.2948	0.642225	3.27906	0.950949	5.10107
0.423638	2.7086	0.32818	4.76257	0.772779	7.21862	0.961777	6.1215	0.643501	3.258	0.644429	3.2428	0.953965	5.13997
0.425476	2.73171	0.331398	4.76013	0.777635	7.1499	0.965931	6.1719	0.645691	3.22244	0.646609	3.20786	0.956554	5.17184
0.42733	2.75477	0.334615	4.7576	0.782444	7.07855	0.97012	6.22393	0.647858	3.18826	0.648766	3.17423	0.958707	5.19718
0.4292	2.77781	0.33783	4.75513	0.787204	7.00476	0.9738	6.2704	0.650001	3.15547	0.6509	3.14198	0.960417	5.21667
0.431086	2.80074	0.341043	4.75263	0.791913	6.92854	0.976958	6.31091	0.652123	3.12398	0.653013	3.11111	0.961678	5.23068
0.432986	2.82362	0.344254	4.75012	0.79657	6.85	0.979586	6.34487	0.654224	3.09385	0.655106	3.08154	0.962487	5.23944
0.434903	2.84631	0.347464	4.74765	0.801174	6.76923	0.981673	6.37196	0.656306	3.06505	0.657179	3.05328	0.963652	5.25184
0.436834	2.86886	0.350672	4.7451	0.805721	6.68635	0.983214	6.39221	0.658368	3.03763	0.659234	3.02642	0.964921	5.26504
0.438781	2.89134	0.353879	4.74257	0.810213	6.60159	0.984202	6.40532	0.660412	3.0115	0.66127	3.00088	0.966652	5.28245
0.440743	2.91359	0.357084	4.74004	0.814646	6.5151	0.985627	6.424	0.662439	2.98667	0.66329	2.97655	0.96885	5.30377
0.44272	2.93567	0.360287	4.73751	0.81902	6.42698	0.98718	6.44446	0.66445	2.96316	0.665294	2.95359	0.97152	5.3285
0.444711	2.95756	0.363488	4.73498	0.823334	6.33733	0.989301	6.4727	0.666445	2.9409	0.667283	2.93191	0.974667	5.35583
0.446718	2.97931	0.366688	4.73251	0.827587	6.24647	0.991996	6.50847	0.668425	2.91992	0.669258	2.91142	0.978297	5.38519
0.448739	3.00083	0.369886	4.73001	0.831778	6.1546	0.995274	6.5522	0.670392	2.9002	0.671219	2.8922	0.981947	5.41239
0.450775	3.02214	0.373082	4.72745	0.835907	6.06183	0.999149	6.60397	0.672346	2.88166	0.673168	2.87421	0.985614	5.43745
0.452824	3.0433	0.376276	4.72491	0.839973	5.96834	1.00363	6.63381	0.674288	2.86431	0.675104	2.85733	0.989297	5.46033
0.454889	3.06418	0.379469	4.72237	0.843975	5.87445			0.676218	2.84811	0.67703	2.84163	0.992995	5.48101
0.456967	3.08481	0.38266	4.7199	0.847914	5.78031			0.678138	2.8331	0.678946	2.82711	0.996707	5.49957
0.459059	3.10527	0.38585	4.71739	0.851789	5.68604			0.680048	2.81918	0.680852	2.8136	1.00043	5.50835
0.461165	3.12545	0.389038	4.71493	0.855601	5.59196			0.681949	2.80632	0.682749	2.80119		
0.463284	3.14543	0.392224	4.71244	0.859349	5.49823			0.683842	2.79453	0.684639	2.78988		
0.465417	3.16521	0.395408	4.70988	0.863034	5.40497			0.685727	2.78374	0.686521	2.77948		
0.467563	3.18465	0.398591	4.70744	0.866656	5.31251			0.687605	2.77396	0.688396	2.7701		
0.469722	3.2039	0.401772	4.70496	0.870215	5.22094			0.689477	2.76513	0.690266	2.76172		
0.471894	3.22292	0.404951	4.7025	0.873713	5.13034			0.691343	2.75728	0.69213	2.7542		
0.474079	3.24167	0.408129	4.70007	0.877151	5.04102			0.693204	2.75028	0.693989	2.74761		
0.476276	3.26018	0.411305	4.69754	0.880528	4.95305			0.695061	2.7442	0.695844	2.74189		
0.478486	3.27842	0.414479	4.69511	0.883847	4.86656			0.696914	2.73894	0.697695	2.73696		
0.480708	3.29647	0.417652	4.69273	0.887107	4.78167			0.698763	2.7345	0.699544	2.73288		
0.482942	3.31428	0.420823	4.69029	0.890311	4.69839			0.70061	2.73086	0.70139	2.72958		
0.485189	3.33177	0.423992	4.68785	0.893459	4.61697			0.702455	2.72798	0.703234	2.72697		
0.487446	3.34899	0.42716	4.68547	0.896552	4.53744			0.704298	2.72584	0.705076	2.72511		
0.489716	3.36604	0.430326	4.68307	0.899592	4.45977			0.70614	2.72436	0.706918	2.72398		
0.491997	3.38283	0.433491	4.68066	0.902581	4.38413			0.707981	2.72367	0.708759	2.72352		
0.494289	3.39936	0.436654	4.67829	0.905519	4.31058			0.709822	2.72353	0.7106	2.72369		
0.496592	3.4157	0.439815	4.6759	0.908408	4.23902			0.711663	2.72401	0.712441	2.72443		
0.498906	3.43175	0.442975	4.67354	0.91125	4.16957			0.713504	2.72516	0.714283	2.72581		
0.501231	3.44749	0.446133	4.67125	0.914045	4.10224			0.715347	2.7269	0.716126	2.72776		
0.503567	3.46309	0.44929	4.66889	0.916795	4.03692			0.717191	2.72913	0.71797	2.73025		
0.505913	3.47846	0.452445	4.66655	0.919502	3.97377			0.719036	2.73191	0.719817	2.73326		
0.508269	3.49356	0.455598	4.66422	0.922167	3.91277			0.720884	2.73527	0.721665	2.73679		
0.510636	3.50843	0.45875	4.66189	0.924792	3.85375			0.722734	2.73902	0.723516	2.74077		
0.513012	3.52304	0.461901	4.65962	0.927377	3.79683			0.724587	2.74327	0.72537	2.74519		
0.515398	3.53746	0.465049	4.65737	0.929924	3.74197			0.726442	2.74797	0.727227	2.75007		
0.517794	3.55163	0.468197	4.65509	0.932435	3.6891			0.728301	2.75309	0.729088	2.75539		
0.5202	3.56559	0.471342	4.65284	0.934911	3.63818			0.730164	2.75863	0.730952	2.76113		
0.522614	3.57933	0.474486	4.6506	0.937354	3.5892			0.732031	2.76453	0.73282	2.76718		
0.525038	3.59286	0.477629	4.64832	0.939763	3.54214			0.733901	2.77086	0.734693	2.77358		
0.527471	3.60619	0.48077	4.64612	0.942142	3.49691			0.735776	2.77751	0.73657	2.78042		
