Sym0		Asym0		Sym1		Asym1		Asym2	
341  Points		338  Points		214  Points		291  Points		291  Points	
Freq (MHz)	Vph (m/ms)	Freq (MHz)	Vph (m/ms)	Freq (MHz)	Vph (m/ms)	Freq (MHz)	Vph (m/ms)	Freq (MHz)	Vph (m/ms)
0.00112048	9.01406	0.000317592	0.203717	0.459105	779.118	0.338518	986.443	0.338543	619.142
0.00678264	9.01404	0.000624415	0.285495	0.459071	377.088	0.338631	348.63	0.338691	288.262
0.012444	9.01348	0.00103321	0.366999	0.459013	248.712	0.338853	211.854	0.338948	187.982
0.0181041	9.01264	0.00154316	0.448147	0.458933	185.524	0.339182	152.262	0.339312	139.563
0.0237622	9.01144	0.00215323	0.528844	0.458829	147.921	0.339619	118.924	0.339783	111.063
0.0294178	9.00993	0.00286225	0.609025	0.458704	122.977	0.340162	97.6378	0.34036	92.3002
0.0350702	9.00808	0.00366887	0.688617	0.458557	105.218	0.34081	82.8805	0.341042	79.0238
0.0407187	9.00589	0.00457159	0.767557	0.45839	91.9298	0.341561	72.0562	0.341827	69.1422
0.0463628	9.00337	0.0055688	0.845786	0.458204	81.6115	0.342416	63.7841	0.342715	61.5068
0.0520018	9.00052	0.00665864	0.923231	0.457999	73.3667	0.343371	57.2619	0.343702	55.4347
0.0576349	8.99732	0.00783916	0.999833	0.457778	66.627	0.344426	51.9915	0.344789	50.4942
0.0632615	8.99375	0.00910851	1.07556	0.457541	61.0144	0.345578	47.6474	0.345971	46.3991
0.068881	8.98984	0.0104645	1.15035	0.457289	56.2676	0.346825	44.0079	0.347249	42.952
0.0744924	8.98556	0.0119049	1.22416	0.457026	52.2006	0.348165	40.9167	0.348619	40.0126
0.0800953	8.98091	0.0134275	1.29696	0.456752	48.6769	0.349596	38.2605	0.350079	37.4782
0.0856885	8.97588	0.0150301	1.36871	0.456469	45.5945	0.351115	35.955	0.351627	35.2719
0.0912715	8.97046	0.0167102	1.43937	0.456178	42.8753	0.352721	33.9365	0.35326	33.3353
0.0968434	8.96463	0.0184656	1.50893	0.455883	40.4589	0.354411	32.1557	0.354976	31.6228
0.102403	8.9584	0.0202938	1.57737	0.455584	38.2975	0.356182	30.5739	0.356773	30.0986
0.10795	8.95174	0.0221927	1.64465	0.455285	36.3527	0.358031	29.1604	0.358647	28.734
0.113483	8.94464	0.0241596	1.71078	0.454986	34.5938	0.359957	27.8904	0.360597	27.506
0.119001	8.9371	0.0261922	1.77573	0.454691	32.9955	0.361956	26.7436	0.36262	26.3955
0.124503	8.92909	0.0282884	1.83951	0.454402	31.537	0.364026	25.7037	0.364712	25.3871
0.129989	8.9206	0.0304457	1.9021	0.454121	30.2009	0.366165	24.7566	0.366873	24.4676
0.135455	8.91162	0.0326619	1.9635	0.453851	28.9726	0.36837	23.8911	0.369099	23.6263
0.140903	8.90212	0.0349348	2.02372	0.453594	27.8398	0.370638	23.0972	0.371387	22.8539
0.14633	8.89209	0.0372622	2.08275	0.453352	26.7921	0.372967	22.3668	0.373735	22.1425
0.151735	8.88151	0.039642	2.14061	0.453129	25.8204	0.375355	21.6928	0.376141	21.4854
0.157116	8.87035	0.0420721	2.1973	0.452927	24.917	0.377798	21.0692	0.378602	20.8769
0.162472	8.8586	0.0445504	2.25283	0.452749	24.0753	0.380295	20.4906	0.381116	20.312
0.167802	8.84623	0.0470751	2.30721	0.452598	23.2893	0.382844	19.9526	0.38368	19.7863
0.173104	8.83321	0.0496441	2.36045	0.452477	22.5541	0.385441	19.4512	0.386293	19.2959
0.178375	8.81952	0.0522557	2.41257	0.452388	21.865	0.388085	18.9829	0.388951	18.8377
0.183615	8.80513	0.0549081	2.46358	0.452335	21.2183	0.390773	18.5446	0.391654	18.4085
0.188821	8.79001	0.0575995	2.5135	0.452321	20.6103	0.393504	18.1336	0.394397	18.0059
0.193992	8.77413	0.0603282	2.56234	0.45235	20.0381	0.396274	17.7476	0.397181	17.6274
0.199124	8.75746	0.0630927	2.61012	0.452423	19.4988	0.399083	17.3843	0.400001	17.2711
0.204216	8.73995	0.0658914	2.65686	0.452547	18.99	0.401927	17.0419	0.402857	16.9351
0.209266	8.72159	0.0687228	2.70258	0.452722	18.5095	0.404806	16.7187	0.405746	16.6177
0.21427	8.70234	0.0715854	2.74729	0.452954	18.0553	0.407717	16.4131	0.408667	16.3176
0.219226	8.68214	0.074478	2.79101	0.453245	17.6256	0.410658	16.1238	0.411617	16.0333
0.224132	8.66098	0.077399	2.83377	0.453601	17.2188	0.413627	15.8494	0.414596	15.7636
0.228985	8.6388	0.0803473	2.87558	0.454024	16.8335	0.416623	15.589	0.4176	15.5074
0.233781	8.61557	0.0833216	2.91646	0.454518	16.4683	0.419644	15.3415	0.420628	15.2638
0.238518	8.59125	0.0863207	2.95644	0.455088	16.122	0.422687	15.1058	0.423679	15.0319
0.243191	8.5658	0.0893436	2.99553	0.455738	15.7935	0.425753	14.8813	0.42675	14.8108
0.2478	8.53918	0.092389	3.03374	0.456471	15.4819	0.428837	14.6671	0.429841	14.5998
0.252338	8.51135	0.0954561	3.07111	0.457292	15.1863	0.43194	14.4625	0.43295	14.3982
0.256804	8.48227	0.0985437	3.10764	0.458206	14.9057	0.43506	14.2669	0.436074	14.2053
0.261195	8.45192	0.101651	3.14336	0.459216	14.6394	0.438194	14.0797	0.439214	14.0207
0.265505	8.42025	0.104777	3.17829	0.460326	14.3867	0.441343	13.9003	0.442366	13.8437
0.269733	8.38724	0.107921	3.21244	0.46154	14.1469	0.444503	13.7282	0.445529	13.6739
0.273874	8.35287	0.111081	3.24584	0.462862	13.9194	0.447673	13.563	0.448703	13.5109
0.277927	8.31713	0.114258	3.27849	0.464297	13.7037	0.450853	13.4043	0.451886	13.3541
0.281887	8.27998	0.11745	3.31042	0.465846	13.4992	0.454041	13.2516	0.455076	13.2033
0.285751	8.24144	0.120657	3.34165	0.467514	13.3053	0.457235	13.1045	0.458272	13.058
0.289518	8.20151	0.123878	3.37218	0.469303	13.1216	0.460434	12.9629	0.461472	12.918
0.293185	8.16018	0.127112	3.40205	0.471217	12.9477	0.463637	12.8262	0.464676	12.7829
0.296751	8.11749	0.130359	3.43126	0.473256	12.7831	0.466843	12.6943	0.467882	12.6525
0.300212	8.07347	0.133618	3.45983	0.475422	12.6274	0.47005	12.5668	0.471089	12.5264
0.30357	8.02814	0.136888	3.48777	0.477717	12.4801	0.473256	12.4436	0.474295	12.4045
0.306822	7.98156	0.140169	3.51511	0.480142	12.341	0.476462	12.3243	0.4775	12.2865
0.309969	7.93379	0.14346	3.54185	0.482695	12.2095	0.479664	12.2088	0.480702	12.1721
0.313012	7.88489	0.14676	3.56801	0.485378	12.0853	0.482864	12.0968	0.4839	12.0613
0.31595	7.83494	0.150071	3.5936	0.488188	11.9681	0.486058	11.9882	0.487092	11.9537
0.318787	7.78402	0.153389	3.61864	0.491125	11.8575	0.489246	11.8827	0.490278	11.8492
0.321522	7.73223	0.156716	3.64314	0.494186	11.7532	0.492427	11.7803	0.493457	11.7477
0.32416	7.67965	0.160051	3.66712	0.497369	11.6548	0.4956	11.6807	0.496627	11.649
0.326702	7.62639	0.163394	3.69059	0.500671	11.5619	0.498764	11.5837	0.499787	11.5529
0.329153	7.57255	0.166743	3.71355	0.504089	11.4744	0.501917	11.4893	0.502937	11.4593
0.331514	7.51823	0.169667	3.73316	0.507619	11.3919	0.505059	11.3974	0.506074	11.3681
0.333791	7.46355	0.172163	3.74959	0.511256	11.314	0.508188	11.3077	0.509199	11.2791
0.335988	7.4086	0.17423	3.76298	0.514998	11.2406	0.511303	11.2202	0.51231	11.1923
0.338107	7.35349	0.175866	3.77345	0.51884	11.1713	0.514404	11.1348	0.515406	11.1075
0.340155	7.29832	0.17707	3.78107	0.522776	11.1058	0.51749	11.0513	0.518487	11.0246
0.342136	7.24319	0.17784	3.78592	0.526804	11.044	0.520559	10.9697	0.52155	10.9436
0.344053	7.18819	0.178949	3.79286	0.530918	10.9856	0.523611	10.8899	0.524596	10.8643
0.345911	7.13341	0.180154	3.80033	0.535113	10.9303	0.526645	10.8117	0.527624	10.7867
0.347716	7.07892	0.181795	3.81041	0.539386	10.878	0.529659	10.7351	0.530632	10.7107
0.34947	7.0248	0.183871	3.82302	0.543732	10.8285	0.532653	10.6601	0.53362	10.6361
0.351179	6.97113	0.186384	3.83804	0.548147	10.7816	0.535627	10.5866	0.536587	10.563
0.352847	6.91797	0.189336	3.85536	0.552626	10.737	0.538579	10.5144	0.539532	10.4912
0.354477	6.86538	0.192727	3.87485	0.557165	10.6947	0.541509	10.4435	0.54208	10.4298
0.356073	6.81341	0.196123	3.89394	0.561761	10.6544	0.544044	10.3828	0.544238	10.3781
0.35764	6.76211	0.199522	3.91263	0.56641	10.6161	0.54619	10.3317	0.546013	10.3359
0.35918	6.71151	0.202924	3.93093	0.571107	10.5796	0.547955	10.29	0.547409	10.3029
0.360696	6.66166	0.20633	3.94886	0.575851	10.5448	0.549344	10.2573	0.548433	10.2787
0.362193	6.61259	0.209739	3.96642	0.580636	10.5115	0.550361	10.2334	0.549086	10.2633
0.363672	6.56432	0.213151	3.98362	0.585461	10.4797	0.551011	10.2182	0.550023	10.2414
0.365138	6.51688	0.216565	4.00047	0.589694	10.453	0.551942	10.1965	0.551039	10.2176
0.366591	6.47028	0.219982	4.01697	0.593323	10.4311	0.552951	10.173	0.552415	10.1855
0.368036	6.42455	0.223401	4.03314	0.596337	10.4134	0.554319	10.1412	0.554146	10.1452
0.369473	6.37968	0.226822	4.04899	0.598729	10.3998	0.556039	10.1014	0.556227	10.097
0.370906	6.3357	0.230245	4.06451	0.600491	10.3899	0.558107	10.0537	0.558649	10.0412
0.372152	6.2981	0.233669	4.07972	0.601621	10.3837	0.560514	9.99847	0.561404	9.97811
0.373213	6.26658	0.237095	4.09462	0.603247	10.3748	0.563251	9.93596	0.564132	9.91589
0.374091	6.24088	0.240522	4.10923	0.605019	10.3652	0.56596	9.87434	0.566833	9.85455
0.374785	6.22081	0.24395	4.12355	0.607432	10.3525	0.568642	9.81358	0.569506	9.79407
0.375296	6.20618	0.247379	4.13757	0.610493	10.3367	0.571296	9.75365	0.57215	9.73439
0.375624	6.19687	0.250809	4.15133	0.614206	10.318	0.573922	9.69451	0.574767	9.67551
0.376094	6.18358	0.254239	4.1648	0.618576	10.2967	0.576519	9.63614	0.577355	9.61738
0.376606	6.16924	0.25767	4.17802	0.623608	10.2731	0.579088	9.5785	0.579914	9.55997
0.377303	6.14992	0.261101	4.19097	0.628656	10.2502	0.581627	9.52158	0.582444	9.50328
0.378186	6.12579	0.264533	4.20366	0.633718	10.228	0.584138	9.46535	0.584946	9.44727
0.379257	6.09705	0.267964	4.21611	0.638793	10.2064	0.58662	9.40979	0.587418	9.39192
0.380517	6.06395	0.271396	4.22831	0.643878	10.1854	0.589073	9.35488	0.589862	9.33722
0.381971	6.02678	0.274827	4.24028	0.648971	10.165	0.591497	9.3006	0.592277	9.28314
0.383433	5.99048	0.278259	4.25201	0.654071	10.145	0.593892	9.24693	0.594663	9.22967
0.384905	5.95503	0.281689	4.26351	0.659175	10.1256	0.596259	9.19387	0.59702	9.17679
0.386387	5.92043	0.28512	4.27479	0.664283	10.1065	0.598598	9.14138	0.59935	9.12449
0.38788	5.88666	0.28855	4.28585	0.669391	10.0878	0.600908	9.08947	0.601651	9.07276
0.389386	5.85371	0.291979	4.29669	0.674499	10.0695	0.60319	9.03812	0.603924	9.02159
0.390905	5.82157	0.295407	4.30733	0.679604	10.0514	0.605445	8.98731	0.60617	8.97096
0.392438	5.79023	0.298835	4.31776	0.684706	10.0337	0.607673	8.93705	0.608389	8.92087
0.393984	5.75966	0.302261	4.32799	0.689802	10.0161	0.609873	8.88731	0.610581	8.8713
0.395546	5.72987	0.305687	4.33802	0.694891	9.99884	0.612048	8.8381	0.612747	8.82226
0.397123	5.70084	0.309111	4.34786	0.699971	9.98172	0.614197	8.78941	0.614888	8.77373
0.398715	5.67255	0.312535	4.35751	0.705041	9.96475	0.61632	8.74122	0.617003	8.72571
0.400323	5.64499	0.315957	4.36698	0.710098	9.94792	0.618419	8.69353	0.619094	8.67818
0.401948	5.61814	0.319377	4.37626	0.715142	9.93118	0.620494	8.64635	0.621161	8.63116
0.40359	5.59199	0.322797	4.38537	0.720171	9.91453	0.622545	8.59965	0.623204	8.58462
0.405249	5.56652	0.326215	4.3943	0.725182	9.89793	0.624573	8.55345	0.625225	8.53858
0.406925	5.54173	0.329631	4.40307	0.730175	9.88136	0.626579	8.50773	0.627224	8.49302
0.408618	5.51759	0.333045	4.41166	0.735148	9.86479	0.628563	8.4625	0.629201	8.44794
0.41033	5.4941	0.336458	4.42009	0.740098	9.84821	0.630526	8.41774	0.631158	8.40334
0.412058	5.47123	0.33987	4.42836	0.745025	9.8316	0.632469	8.37347	0.633095	8.35922
0.413805	5.44898	0.343279	4.43647	0.749927	9.81492	0.634393	8.32966	0.635013	8.31557
0.41557	5.42732	0.346687	4.44443	0.754801	9.79816	0.636298	8.28634	0.636912	8.27239
0.417353	5.40626	0.350092	4.45224	0.759647	9.78131	0.638186	8.24348	0.638794	8.22969
0.419154	5.38577	0.353496	4.4599	0.764462	9.76433	0.640056	8.20109	0.640658	8.18745
0.420974	5.36584	0.356897	4.46741	0.769244	9.74721	0.641909	8.15917	0.642507	8.14569
0.422811	5.34645	0.360297	4.47478	0.773993	9.72994	0.643747	8.11772	0.64434	8.10439
0.424667	5.3276	0.363694	4.48201	0.778705	9.71248	0.645571	8.07674	0.646159	8.06355
0.426541	5.30927	0.36709	4.4891	0.78338	9.69483	0.64738	8.03622	0.647963	8.02318
0.428433	5.29144	0.370483	4.49605	0.788015	9.67696	0.649176	7.99616	0.649755	7.98328
0.430343	5.27412	0.373873	4.50288	0.792608	9.65887	0.650959	7.95657	0.651535	7.94383
0.432271	5.25727	0.377262	4.50957	0.797158	9.64052	0.652731	7.91743	0.653303	7.90485
0.434216	5.2409	0.380648	4.51613	0.801664	9.62192	0.654491	7.87876	0.65506	7.86632
0.43618	5.22499	0.384031	4.52257	0.806122	9.60303	0.656242	7.84055	0.656807	7.82826
0.438162	5.20952	0.387412	4.52889	0.810533	9.58385	0.657983	7.80279	0.658545	7.79065
0.440161	5.1945	0.390791	4.53509	0.814893	9.56437	0.659715	7.76549	0.660275	7.75349
0.442177	5.1799	0.394167	4.54116	0.819201	9.54457	0.66144	7.72864	0.661997	7.71679
0.444211	5.16571	0.397541	4.54712	0.823456	9.52443	0.663157	7.69225	0.663712	7.68055
0.446262	5.15193	0.400912	4.55297	0.827655	9.50396	0.664868	7.6563	0.665421	7.64475
0.44833	5.13854	0.40428	4.5587	0.831799	9.48314	0.666572	7.62081	0.667124	7.6094
0.450415	5.12554	0.407645	4.56432	0.835885	9.46196	0.668272	7.58577	0.668822	7.5745
0.452517	5.11291	0.411008	4.56983	0.839911	9.44041	0.669967	7.55117	0.670516	7.54005
0.454636	5.10064	0.414368	4.57524	0.843878	9.4185	0.671659	7.51701	0.672207	7.50604
0.456771	5.08873	0.417726	4.58054	0.847783	9.39621	0.673347	7.4833	0.673894	7.47247
0.458922	5.07717	0.42108	4.58573	0.851626	9.37355	0.675033	7.45003	0.675579	7.43934
0.461089	5.06594	0.424432	4.59083	0.855406	9.35051	0.676717	7.41719	0.677263	7.40664
0.463272	5.05504	0.42778	4.59582	0.859123	9.32709	0.6784	7.38479	0.678945	7.37438
0.465471	5.04446	0.431126	4.60072	0.862775	9.3033	0.680082	7.35282	0.680627	7.34255
0.467686	5.03419	0.434469	4.60552	0.866363	9.27914	0.681763	7.32129	0.682309	7.31115
0.469916	5.02422	0.437809	4.61023	0.869887	9.25461	0.683446	7.29018	0.683991	7.28018
0.472161	5.01455	0.441146	4.61484	0.873345	9.22972	0.685129	7.25949	0.685675	7.24963
0.474421	5.00516	0.444479	4.61936	0.876739	9.20449	0.686814	7.22923	0.68736	7.21951
0.476696	4.99606	0.44781	4.62379	0.880068	9.17891	0.688501	7.19938	0.689048	7.18979
0.478986	4.98722	0.451138	4.62813	0.883334	9.153	0.69019	7.16995	0.690738	7.1605
0.48129	4.97865	0.454462	4.63239	0.886535	9.12677	0.691882	7.14093	0.692432	7.13162
0.483608	4.97033	0.457784	4.63655	0.889674	9.10023	0.693578	7.11233	0.694129	7.10314
0.48594	4.96227	0.461102	4.64064	0.892751	9.07341	0.695278	7.08413	0.69583	7.07507
0.488286	4.95444	0.464417	4.64464	0.895766	9.0463	0.696982	7.05633	0.697536	7.0474
0.490646	4.94686	0.467728	4.64856	0.898721	9.01893	0.698691	7.02893	0.699246	7.02013
0.493019	4.9395	0.471037	4.65239	0.901618	8.99132	0.700405	7.00193	0.700962	6.99326
0.495406	4.93237	0.474342	4.65615	0.904456	8.96348	0.702125	6.97532	0.702684	6.96677
0.497805	4.92546	0.477644	4.65983	0.907238	8.93542	0.703851	6.94909	0.704411	6.94068
0.500218	4.91876	0.480943	4.66343	0.909964	8.90717	0.705583	6.92326	0.706145	6.91497
0.502643	4.91226	0.484238	4.66696	0.912637	8.87874	0.707321	6.8978	0.707886	6.88963
0.505081	4.90597	0.48753	4.67041	0.915258	8.85015	0.709067	6.87273	0.709634	6.86468
0.50753	4.89987	0.490818	4.67379	0.917828	8.82142	0.71082	6.84803	0.71139	6.8401
0.509992	4.89396	0.494104	4.6771	0.920348	8.79256	0.712581	6.8237	0.713153	6.81589
0.512466	4.88824	0.497385	4.68033	0.922821	8.7636	0.71435	6.79973	0.714925	6.79204
0.514952	4.88269	0.500664	4.6835	0.925248	8.73454	0.716127	6.77613	0.716705	6.76856
0.517449	4.87732	0.503938	4.68659	0.927631	8.70542	0.717912	6.75289	0.718493	6.74543
0.519958	4.87212	0.50721	4.68962	0.929971	8.67623	0.719707	6.73	0.72029	6.72266
0.522478	4.86708	0.510478	4.69258	0.93227	8.647	0.72151	6.70747	0.722097	6.70024
0.525009	4.86221	0.513742	4.69548	0.934529	8.61775	0.723323	6.68528	0.723912	6.67816
0.52755	4.85749	0.517003	4.69831	0.93675	8.58848	0.725145	6.66344	0.725738	6.65643
0.530102	4.85292	0.52026	4.70107	0.938935	8.55922	0.726977	6.64194	0.727573	6.63504
0.532665	4.8485	0.523514	4.70377	0.941085	8.52997	0.728819	6.62077	0.729419	6.61398
0.535238	4.84422	0.526764	4.70641	0.943202	8.50076	0.730671	6.59993	0.731274	6.59325
0.537821	4.84008	0.530011	4.70899	0.945286	8.47159	0.732534	6.57943	0.73314	6.57285
0.540414	4.83608	0.533254	4.71151	0.947341	8.44247	0.734407	6.55925	0.735017	6.55277
0.543017	4.83221	0.536493	4.71397	0.949366	8.41342	0.736291	6.53938	0.736904	6.53301
0.545629	4.82847	0.539729	4.71637	0.951363	8.38445	0.738186	6.51984	0.738802	6.51357
0.548251	4.82485	0.542961	4.71872	0.953335	8.35557	0.740092	6.50061	0.740712	6.49444
0.550882	4.82135	0.54619	4.721	0.955281	8.32678	0.742009	6.48168	0.742632	6.47561
0.553522	4.81797	0.549415	4.72323	0.957204	8.29811	0.743937	6.46306	0.744564	6.45709
0.556172	4.8147	0.552636	4.72541	0.959104	8.26955	0.745877	6.44475	0.746508	6.43887
0.558829	4.81155	0.555854	4.72753	0.960983	8.24111	0.747828	6.42673	0.748463	6.42095
0.561496	4.8085	0.559068	4.7296	0.962841	8.21281	0.749791	6.409	0.75043	6.40331
0.564171	4.80556	0.562278	4.73161	0.964681	8.18465	0.751766	6.39156	0.752409	6.38597
0.566854	4.80272	0.565485	4.73358	0.966502	8.15664	0.753753	6.37441	0.754399	6.36891
0.569546	4.79998	0.568688	4.73549	0.968307	8.12878	0.755751	6.35754	0.756402	6.35213
0.572245	4.79733	0.571887	4.73735	0.970096	8.10107	0.757762	6.34095	0.758417	6.33563
0.574952	4.79478	0.575083	4.73917	0.97187	8.07354	0.759785	6.32463	0.760444	6.3194
0.577667	4.79231	0.578275	4.74093	0.97363	8.04617	0.761821	6.30859	0.762483	6.30344
0.58039	4.78994	0.581464	4.74265	0.975377	8.01898	0.763868	6.29281	0.764534	6.28775
0.58312	4.78765	0.584648	4.74431	0.977111	7.99197	0.765928	6.2773	0.766598	6.27232
0.585857	4.78544	0.58783	4.74594	0.978834	7.96514	0.768	6.26204	0.768675	6.25715
0.588602	4.78332	0.591007	4.74751	0.980547	7.9385	0.770085	6.24705	0.770763	6.24224
0.591353	4.78127	0.594181	4.74905	0.98225	7.91205	0.772182	6.2323	0.772865	6.22758
0.594112	4.7793	0.597351	4.75053	0.983944	7.88579	0.774292	6.21781	0.774979	6.21316
0.596877	4.7774	0.600517	4.75198	0.985629	7.85973	0.776414	6.20356	0.777105	6.19899
0.599648	4.77558	0.60368	4.75338	0.987307	7.83387	0.778549	6.18955	0.779244	6.18506
0.602427	4.77382	0.606839	4.75474	0.988978	7.80821	0.780697	6.17578	0.781396	6.17137
0.605211	4.77214	0.609995	4.75605	0.990642	7.78276	0.782857	6.16225	0.78356	6.15792
0.608002	4.77051	0.613147	4.75733	0.992301	7.75751	0.78503	6.14895	0.785737	6.14469
0.610799	4.76895	0.616295	4.75857	0.993955	7.73246	0.787215	6.13588	0.787927	6.13169
0.613602	4.76746	0.61944	4.75976	0.995604	7.70763	0.789414	6.12304	0.790129	6.11892
0.616411	4.76602	0.622581	4.76092	0.997249	7.683	0.791624	6.11041	0.792344	6.10637
0.619225	4.76464	0.625719	4.76204	0.998891	7.65859	0.793848	6.09801	0.794571	6.09403
0.622045	4.76332	0.628853	4.76312	1.00053	7.63439	0.796084	6.08582	0.796811	6.08191
0.624871	4.76205	0.631984	4.76417			0.798333	6.07384	0.799064	6.07001
0.627702	4.76083	0.635111	4.76518			0.800594	6.06208	0.80133	6.05831
0.630538	4.75967	0.638234	4.76615			0.802868	6.05052	0.803608	6.04681
0.63338	4.75856	0.641355	4.76709			0.805154	6.03916	0.805898	6.03552
0.636226	4.75749	0.644471	4.76799			0.807453	6.028	0.808201	6.02443
0.639078	4.75647	0.647585	4.76886			0.809764	6.01704	0.810516	6.01353
0.641935	4.7555	0.650694	4.7697			0.812088	6.00627	0.812844	6.00282
0.644796	4.75457	0.653801	4.77051			0.814425	5.9957	0.815185	5.99231
0.647662	4.75369	0.656904	4.77128			0.816773	5.98531	0.817537	5.98198
0.650532	4.75284	0.660004	4.77202			0.819134	5.97511	0.819902	5.97184
0.653407	4.75204	0.6631	4.77273			0.821507	5.96509	0.822279	5.96188
0.656286	4.75127	0.666193	4.77341			0.823893	5.95524	0.824668	5.95209
0.65917	4.75055	0.669283	4.77407			0.82629	5.94558	0.82707	5.94248
0.662058	4.74985	0.67237	4.77469			0.8287	5.93609	0.829483	5.93305
0.66495	4.7492	0.675453	4.77529			0.831121	5.92677	0.831909	5.92378
0.667846	4.74858	0.678534	4.77586			0.833555	5.91761	0.834347	5.91468
0.670745	4.74799	0.681611	4.7764			0.836001	5.90863	0.836796	5.90575
0.673649	4.74743	0.684685	4.77691			0.838458	5.8998	0.839257	5.89697
0.676556	4.74691	0.687756	4.7774			0.840927	5.89114	0.84173	5.88836
0.679467	4.74642	0.690824	4.77786			0.843408	5.88263	0.844215	5.8799
0.682382	4.74595	0.693889	4.7783			0.8459	5.87428	0.846711	5.8716
0.6853	4.74551	0.696951	4.77872			0.848404	5.86608	0.849218	5.86345
0.688221	4.7451	0.70001	4.77911			0.85092	5.85803	0.851737	5.85545
0.691146	4.74472	0.703066	4.77948			0.853446	5.85012	0.854268	5.84759
0.694074	4.74436	0.70612	4.77982			0.855985	5.84237	0.85681	5.83988
