Sym0		Asym0		Sym1		Sym2		Sym3		Asym1		Asym2		Asym3	
396  Points		408  Points		236  Points		198  Points		162  Points		309  Points		208  Points		109  Points	
Freq (MHz)	Vgr (m/ms)	Freq (MHz)	Vgr (m/ms)	Freq (MHz)	Vgr (m/ms)	Freq (MHz)	Vgr (m/ms)	Freq (MHz)	Vgr (m/ms)	Freq (MHz)	Vgr (m/ms)	Freq (MHz)	Vgr (m/ms)	Freq (MHz)	Vgr (m/ms)
0.00435246	5.49123	0.000332122	0.390925	0.381881	0.00681264	0.488362	0.0736874	0.763763	0.0133023	0.190992	0.221016	0.572823	0.0227353	0.954702	-0.00940598
0.00902284	5.49103	0.000664611	0.457048	0.381887	0.0134179	0.488424	0.102084	0.763774	0.0262383	0.19118	0.301571	0.572842	0.0375826	0.954694	-0.0135318
0.0136929	5.49049	0.00110958	0.588141	0.381904	0.0265744	0.488535	0.158871	0.763807	0.0521289	0.191505	0.46196	0.572887	0.0673616	0.954679	-0.0215767
0.0183624	5.48973	0.00166506	0.71678	0.381932	0.0397291	0.488695	0.21564	0.763863	0.0780751	0.191966	0.620749	0.572957	0.0971532	0.954657	-0.0291618
0.0230311	5.48878	0.00232884	0.842556	0.381972	0.0530409	0.488902	0.272294	0.76394	0.103972	0.192561	0.777299	0.573052	0.12689	0.954629	-0.0361483
0.027699	5.48761	0.00309828	0.965014	0.382023	0.066426	0.489158	0.328796	0.764039	0.129851	0.193288	0.931136	0.573173	0.156597	0.954596	-0.0423387
0.0323657	5.48622	0.00397037	1.0838	0.382085	0.0799579	0.489461	0.385077	0.764161	0.155773	0.194145	1.08188	0.573318	0.186324	0.954557	-0.0477392
0.0370312	5.48458	0.00494186	1.1987	0.382159	0.0937029	0.489813	0.441073	0.764304	0.181623	0.195128	1.22899	0.57349	0.216014	0.954514	-0.0522018
0.0416952	5.48272	0.0060094	1.30944	0.382244	0.107553	0.490212	0.496903	0.76447	0.207486	0.196235	1.37221	0.573686	0.245625	0.954468	-0.0555909
0.0463575	5.48062	0.00716927	1.41579	0.382342	0.121695	0.490658	0.552481	0.764657	0.233299	0.197463	1.51128	0.573907	0.275243	0.95442	-0.0579565
0.0510179	5.47827	0.00841771	1.51767	0.382451	0.136098	0.491151	0.607713	0.764867	0.259089	0.198806	1.64595	0.574154	0.304792	0.95437	-0.0592375
0.0556763	5.47573	0.00975089	1.61498	0.382573	0.150703	0.491692	0.662657	0.765098	0.284914	0.200262	1.7761	0.574426	0.334284	0.954319	-0.0593926
0.0603323	5.4729	0.0111648	1.70769	0.382707	0.165632	0.492279	0.717184	0.765351	0.31065	0.201827	1.90151	0.574723	0.363743	0.954269	-0.058419
0.0649858	5.46979	0.0126557	1.79587	0.382855	0.180888	0.492912	0.771359	0.765627	0.336367	0.203497	2.02221	0.575045	0.393136	0.95422	-0.0563917
0.0696366	5.46648	0.0142197	1.87948	0.383015	0.196475	0.493591	0.825151	0.765924	0.362046	0.205267	2.13812	0.575391	0.422475	0.954173	-0.0532997
0.0742845	5.46289	0.0158528	1.95862	0.383189	0.212406	0.494315	0.878497	0.766242	0.387729	0.207134	2.24926	0.575763	0.451708	0.954129	-0.0491217
0.0789292	5.45902	0.0175514	2.03344	0.383376	0.228702	0.495085	0.931433	0.766583	0.41334	0.209093	2.35569	0.57616	0.480889	0.954089	-0.043975
0.0835705	5.45487	0.0193117	2.10405	0.383578	0.245407	0.4959	0.98387	0.766945	0.438888	0.211141	2.45752	0.576581	0.510046	0.954054	-0.0379338
0.0882081	5.45043	0.0211304	2.1705	0.383794	0.262532	0.496759	1.03587	0.76733	0.464469	0.213274	2.55485	0.577027	0.539076	0.954025	-0.0309864
0.0928419	5.44565	0.0230038	2.23303	0.384025	0.280092	0.497662	1.0874	0.767736	0.489958	0.215487	2.64771	0.577498	0.568011	0.954002	-0.0231893
0.0974714	5.44057	0.0249289	2.29182	0.38427	0.298123	0.498608	1.13839	0.768163	0.515422	0.217777	2.73634	0.577994	0.596836	0.953985	-0.0145753
0.102096	5.43524	0.0269023	2.34698	0.384532	0.316614	0.499598	1.18886	0.768612	0.540835	0.220142	2.82085	0.578513	0.625602	0.953977	-0.00521013
0.106717	5.42954	0.0289212	2.39874	0.384809	0.335544	0.500631	1.23885	0.769083	0.566148	0.222576	2.90137	0.579058	0.654332	0.953976	0.00485505
0.111332	5.42343	0.0309826	2.44721	0.385102	0.35495	0.501706	1.28828	0.769575	0.59142	0.225077	2.97817	0.579626	0.682908	0.953985	0.0155179
0.115942	5.417	0.033084	2.49257	0.385413	0.374908	0.502822	1.33715	0.770089	0.616691	0.227308	3.04222	0.580219	0.711336	0.954003	0.0268146
0.120547	5.41023	0.0352226	2.53497	0.38574	0.395407	0.50398	1.38547	0.770624	0.641879	0.229247	3.09466	0.580836	0.739709	0.954031	0.038737
0.125145	5.40303	0.037396	2.57462	0.386085	0.416427	0.505179	1.43326	0.771181	0.666982	0.230875	3.13669	0.581478	0.767972	0.954069	0.0511084
0.129738	5.39545	0.0396021	2.61171	0.386449	0.438008	0.506418	1.48053	0.771759	0.692076	0.232178	3.16892	0.582143	0.796097	0.954118	0.0639769
0.134323	5.38743	0.0418387	2.64633	0.38683	0.460149	0.507697	1.52718	0.772358	0.717069	0.233144	3.19215	0.582832	0.824104	0.954178	0.077358
0.138902	5.37893	0.0441036	2.67858	0.387231	0.482847	0.509016	1.57322	0.772979	0.742023	0.233766	3.20691	0.583545	0.852037	0.954249	0.0911224
0.143473	5.36996	0.046395	2.70867	0.387652	0.506181	0.510373	1.61877	0.77362	0.766899	0.234665	3.22767	0.584281	0.879821	0.954333	0.105252
0.148036	5.36052	0.0487111	2.73674	0.388092	0.530141	0.511769	1.66372	0.774283	0.791697	0.235649	3.24971	0.585041	0.907468	0.954428	0.119793
0.152591	5.35063	0.0510503	2.76289	0.388554	0.554715	0.513203	1.70806	0.774967	0.816422	0.236998	3.2792	0.585825	0.935002	0.954536	0.134672
0.157138	5.34016	0.0534109	2.78727	0.389036	0.579953	0.514675	1.75188	0.775672	0.84108	0.238721	3.31562	0.586632	0.962389	0.954657	0.149828
0.161675	5.32909	0.0557915	2.80995	0.38954	0.605878	0.516183	1.79515	0.776398	0.865685	0.240829	3.35815	0.587462	0.989643	0.954791	0.165297
0.166203	5.31745	0.0581907	2.83108	0.390067	0.632454	0.517729	1.83781	0.777145	0.890182	0.243336	3.40612	0.588315	1.01679	0.954938	0.181071
0.17072	5.30517	0.0606073	2.85072	0.390616	0.659771	0.51931	1.87989	0.777912	0.914625	0.246256	3.45878	0.589192	1.04381	0.955099	0.197055
0.175227	5.29224	0.0630399	2.86897	0.391189	0.687849	0.520926	1.92144	0.7787	0.938961	0.24922	3.50898	0.590091	1.07066	0.955274	0.213296
0.179723	5.27865	0.0654875	2.88598	0.391786	0.716645	0.522578	1.96242	0.779509	0.963241	0.252225	3.55683	0.591013	1.09738	0.955462	0.229732
0.184206	5.26432	0.0679491	2.90171	0.392408	0.746236	0.524264	2.00281	0.780339	0.98749	0.25527	3.60245	0.591957	1.12395	0.955664	0.246397
0.188677	5.24921	0.0704234	2.91639	0.393055	0.776695	0.525985	2.04269	0.781189	1.0116	0.258353	3.64593	0.592925	1.15038	0.955881	0.263279
0.193135	5.23328	0.0729099	2.93002	0.393729	0.807927	0.527739	2.082	0.78206	1.03558	0.261472	3.6874	0.593914	1.17669	0.956112	0.280275
0.197579	5.2165	0.0754075	2.94261	0.394338	0.835845	0.529526	2.12074	0.782951	1.05957	0.264625	3.72695	0.594926	1.20281	0.956358	0.297498
0.202009	5.19883	0.0779154	2.9543	0.394874	0.860241	0.531347	2.15899	0.783862	1.08346	0.267812	3.76466	0.59596	1.22883	0.956618	0.314855
0.206423	5.18025	0.0804329	2.96517	0.395329	0.880805	0.533199	2.19665	0.784794	1.10718	0.271029	3.80064	0.597016	1.2547	0.956894	0.332318
0.210821	5.16067	0.0829593	2.97521	0.395696	0.897251	0.535083	2.23379	0.785745	1.13087	0.274277	3.83496	0.598095	1.28038	0.957184	0.349994
0.215201	5.13996	0.0854938	2.98452	0.39597	0.909675	0.536999	2.27045	0.786717	1.1545	0.277552	3.86773	0.599194	1.30597	0.957489	0.367776
0.219564	5.11819	0.0877087	2.99208	0.396148	0.917571	0.538945	2.30653	0.787709	1.17801	0.280856	3.89903	0.600316	1.3314	0.957809	0.385607
0.223907	5.09527	0.0896011	2.99812	0.396406	0.928941	0.540922	2.3421	0.788721	1.20145	0.284185	3.92889	0.601459	1.35668	0.958145	0.403618
0.228231	5.07109	0.0911688	3.00291	0.39669	0.941638	0.542929	2.37715	0.789753	1.22474	0.287539	3.95733	0.602624	1.38179	0.958496	0.421748
0.232534	5.04561	0.0924101	3.00652	0.397082	0.958999	0.544966	2.41169	0.790804	1.24797	0.290916	3.98455	0.60381	1.40673	0.958862	0.439956
0.236814	5.01879	0.0933237	3.00898	0.397589	0.981386	0.547032	2.44579	0.791876	1.27115	0.294317	4.01052	0.605017	1.4316	0.959244	0.458239
0.241071	4.99058	0.0939088	3.01061	0.398218	1.00896	0.549126	2.47934	0.792967	1.29418	0.297738	4.03526	0.606245	1.45629	0.959642	0.476592
0.24476	4.96478	0.0947505	3.0129	0.398978	1.04215	0.551249	2.51241	0.794077	1.31712	0.301181	4.05886	0.607494	1.48081	0.960055	0.495087
0.24789	4.9418	0.0956661	3.01515	0.399881	1.08132	0.5534	2.54502	0.795207	1.33998	0.304643	4.08141	0.608764	1.50522	0.960484	0.513622
0.250467	4.92219	0.0969123	3.01824	0.400817	1.12165	0.555578	2.57711	0.796357	1.36275	0.308123	4.10292	0.610054	1.52949	0.960929	0.532238
0.252497	4.90628	0.0984902	3.02205	0.401789	1.16328	0.557784	2.60871	0.797525	1.38542	0.311622	4.12342	0.611365	1.55362	0.961389	0.550937
0.253985	4.89437	0.100401	3.02629	0.402796	1.20624	0.560016	2.63989	0.798713	1.40799	0.315138	4.14293	0.612697	1.57759	0.961866	0.569641
0.254936	4.88659	0.102646	3.03095	0.40384	1.25062	0.561982	2.66672	0.79992	1.43049	0.318669	4.16152	0.614049	1.60144	0.962358	0.588434
0.2563	4.87509	0.105226	3.03595	0.404923	1.29645	0.563674	2.68922	0.801146	1.45287	0.322216	4.17928	0.615421	1.62517	0.962867	0.607327
0.257779	4.86248	0.10781	3.04054	0.406046	1.34383	0.565084	2.70771	0.802392	1.47515	0.325778	4.1961	0.616813	1.64871	0.963391	0.626257
0.259784	4.84498	0.110398	3.04476	0.407209	1.39279	0.566206	2.72229	0.803656	1.49735	0.329354	4.21205	0.618226	1.6722	0.963932	0.645183
0.26231	4.82218	0.112989	3.04859	0.408415	1.44339	0.567034	2.73285	0.804939	1.51942	0.332943	4.22729	0.619658	1.69551	0.964489	0.66418
0.265348	4.79374	0.115584	3.05208	0.409665	1.49573	0.567566	2.73956	0.80624	1.54144	0.336545	4.24173	0.62111	1.7187	0.965062	0.683238
0.268888	4.75892	0.118181	3.0553	0.410959	1.54986	0.568333	2.74915	0.807561	1.56332	0.340158	4.25536	0.622391	1.73882	0.965651	0.702341
0.272918	4.71724	0.120781	3.05824	0.412301	1.60585	0.56917	2.75956	0.8089	1.58509	0.343783	4.26832	0.623495	1.75592	0.966256	0.72145
0.276912	4.67353	0.123383	3.06087	0.413691	1.66373	0.570313	2.77369	0.810257	1.60682	0.347419	4.28053	0.624416	1.77006	0.966878	0.740573
0.280868	4.62773	0.125987	3.06323	0.415131	1.7236	0.571767	2.79137	0.811633	1.62845	0.351065	4.29202	0.62515	1.78112	0.967516	0.759803
0.284784	4.57984	0.128594	3.06537	0.416623	1.78542	0.573537	2.81253	0.813027	1.64997	0.35472	4.30289	0.625692	1.78918	0.968171	0.779009
0.288658	4.52973	0.131202	3.06732	0.418168	1.84927	0.575631	2.83699	0.81444	1.67135	0.358384	4.31311	0.62604	1.79433	0.968841	0.798244
0.292489	4.47748	0.133811	3.06906	0.419768	1.91526	0.578055	2.86476	0.81587	1.69269	0.362057	4.32263	0.626543	1.80189	0.969528	0.817539
0.296275	4.42308	0.136422	3.07061	0.421426	1.98331	0.580504	2.89208	0.817319	1.71395	0.365737	4.33156	0.627091	1.81008	0.970232	0.836793
0.300013	4.36643	0.139035	3.07199	0.423142	2.0534	0.582975	2.91898	0.818786	1.73504	0.369425	4.33987	0.627841	1.82102	0.970952	0.856125
0.303702	4.30769	0.141648	3.0732	0.424919	2.12556	0.585469	2.94546	0.82027	1.75611	0.373119	4.34756	0.628797	1.83491	0.971688	0.875454
0.307341	4.24692	0.144262	3.07425	0.426758	2.1997	0.587985	2.97154	0.821773	1.77708	0.37682	4.3547	0.629961	1.85162	0.972441	0.894775
0.310926	4.18407	0.146877	3.07513	0.428661	2.27585	0.590524	2.99726	0.823293	1.79792	0.380527	4.36127	0.631341	1.87117	0.97321	0.91416
0.314458	4.11932	0.149493	3.0759	0.430629	2.35388	0.593084	3.02256	0.824831	1.81867	0.384239	4.36721	0.632942	1.89355	0.973996	0.933515
0.317933	4.0528	0.15211	3.07656	0.432665	2.43361	0.595665	3.04744	0.826387	1.83937	0.387956	4.37262	0.634562	1.91581	0.974798	0.952889
0.321352	3.98468	0.154726	3.07713	0.434769	2.51496	0.598268	3.07196	0.82796	1.85999	0.391677	4.3775	0.636201	1.93801	0.975617	0.9723
0.324712	3.91515	0.157344	3.07758	0.436943	2.59783	0.600891	3.09609	0.829551	1.88046	0.395402	4.38182	0.637858	1.96006	0.976452	0.991706
0.328012	3.84437	0.159962	3.07788	0.439188	2.68192	0.603534	3.11991	0.831159	1.90085	0.39913	4.38562	0.639535	1.98208	0.977304	1.0111
0.331251	3.77259	0.162579	3.07815	0.441505	2.76708	0.606198	3.14329	0.832784	1.92118	0.402862	4.38889	0.64123	2.00404	0.978172	1.03048
0.334429	3.70007	0.165198	3.07833	0.443895	2.85307	0.608881	3.1663	0.834427	1.94146	0.406596	4.39165	0.642944	2.02593	0.979057	1.04989
0.337545	3.62707	0.167816	3.07838	0.446358	2.93959	0.611584	3.18903	0.835872	1.95903	0.410332	4.39383	0.644676	2.04775	0.979958	1.0693
0.340599	3.55386	0.170434	3.0784	0.448895	3.02642	0.614306	3.21135	0.837115	1.97395	0.41407	4.39556	0.646427	2.06949	0.980876	1.08871
0.34359	3.48075	0.173052	3.07833	0.451506	3.11324	0.617046	3.2333	0.838149	1.9863	0.417809	4.39679	0.648196	2.09119	0.98181	1.10811
0.34652	3.40805	0.17567	3.07822	0.454191	3.19981	0.619806	3.25495	0.838972	1.99601	0.421549	4.39748	0.649984	2.11283	0.982761	1.1275
0.349387	3.336	0.178288	3.07808	0.456949	3.28578	0.622583	3.27624	0.839579	2.00313	0.42529	4.39771	0.65179	2.13445	0.983728	1.14686
0.352194	3.26483	0.180906	3.07785	0.45978	3.37089	0.625379	3.2972	0.839969	2.00767	0.42903	4.39738	0.653615	2.15604	0.984712	1.16623
0.354941	3.19494	0.183524	3.07758	0.462683	3.45481	0.628192	3.31783	0.840531	2.0142	0.43277	4.39661	0.655458	2.17763	0.985712	1.18565
0.357629	3.12655	0.186141	3.07728	0.465657	3.53728	0.631022	3.33817	0.841144	2.02133	0.436509	4.39539	0.657319	2.19914	0.986728	1.20499
0.360259	3.05981	0.188758	3.07689	0.4687	3.61811	0.63387	3.35817	0.841981	2.03094	0.440246	4.39361	0.659199	2.22064	0.987761	1.22434
0.362834	2.99499	0.191375	3.07649	0.471811	3.69704	0.636735	3.37784	0.843045	2.0431	0.443982	4.39136	0.661097	2.24219	0.988811	1.24369
0.365354	2.93222	0.193992	3.07609	0.474989	3.77385	0.639616	3.39722	0.844341	2.05781	0.447716	4.38867	0.663013	2.26367	0.989877	1.26298
0.367822	2.87174	0.196608	3.07561	0.478231	3.84832	0.642513	3.4163	0.845872	2.07497	0.451448	4.38548	0.664947	2.28516	0.990959	1.28229
0.370239	2.81363	0.199223	3.07517	0.481535	3.92034	0.645427	3.43506	0.847645	2.0946	0.455176	4.38176	0.6669	2.3067	0.991916	1.29912
0.372608	2.75789	0.201839	3.07467	0.484899	3.98981	0.648357	3.45355	0.849435	2.11417	0.458901	4.37761	0.668871	2.32822	0.992741	1.31336
0.37493	2.70471	0.204454	3.0741	0.488322	4.05659	0.651302	3.47174	0.851242	2.13366	0.462623	4.37301	0.67086	2.34981	0.993431	1.32526
0.377208	2.65413	0.207068	3.07353	0.4918	4.12063	0.654262	3.48966	0.853065	2.15303	0.46634	4.36786	0.672868	2.3714	0.99398	1.33454
0.379445	2.60609	0.209682	3.07297	0.495331	4.18186	0.657238	3.50729	0.854904	2.17238	0.470052	4.36228	0.674894	2.39298	0.994386	1.3415
0.381641	2.56065	0.212295	3.07241	0.498913	4.24031	0.660228	3.52465	0.85676	2.19169	0.47376	4.3562	0.676939	2.41465	0.994648	1.34596
0.383801	2.51775	0.214908	3.0718	0.502544	4.29602	0.663233	3.54175	0.858632	2.21089	0.477462	4.34963	0.679001	2.43635	0.995025	1.35217
0.385924	2.47737	0.21752	3.07118	0.506221	4.34886	0.666253	3.55861	0.860521	2.23004	0.481159	4.34265	0.681083	2.45811	0.995436	1.35905
0.388015	2.43948	0.220132	3.07055	0.509941	4.39895	0.669287	3.57518	0.862425	2.24912	0.484849	4.33515	0.683183	2.47995	0.996	1.36832
0.390074	2.40393	0.222743	3.06991	0.513704	4.44642	0.672334	3.59149	0.864347	2.26813	0.488533	4.32719	0.685301	2.50186	0.996718	1.38009
0.392104	2.37076	0.225354	3.06923	0.517505	4.49122	0.675396	3.60758	0.866284	2.2871	0.49221	4.31875	0.687439	2.5238	0.997594	1.39436
0.394107	2.3398	0.227964	3.06861	0.521343	4.53339	0.678471	3.62342	0.868237	2.30601	0.49588	4.30984	0.689594	2.54581	0.998634	1.41106
0.396084	2.31101	0.230574	3.06798	0.525216	4.57313	0.681559	3.63903	0.870206	2.32486	0.499541	4.30045	0.691769	2.56796	0.999842	1.43017
0.398038	2.2843	0.233183	3.06727	0.529122	4.6105	0.684661	3.65442	0.872192	2.34367	0.503195	4.29058	0.693963	2.59019	1.00107	1.43973
0.39997	2.25955	0.235792	3.06659	0.533059	4.64555	0.687776	3.66958	0.874193	2.36242	0.50684	4.28027	0.696175	2.61246		
0.401881	2.23666	0.238399	3.06597	0.537025	4.67835	0.690903	3.6845	0.87621	2.38114	0.510476	4.2695	0.698407	2.63483		
0.403774	2.21555	0.241007	3.06529	0.541017	4.709	0.694043	3.69922	0.878243	2.39977	0.514102	4.25822	0.700657	2.65736		
0.40565	2.19621	0.243614	3.0646	0.545035	4.7376	0.697196	3.71376	0.880292	2.41835	0.517719	4.24648	0.702927	2.67998		
0.40751	2.1784	0.24622	3.06393	0.549076	4.76426	0.70036	3.7281	0.882357	2.43691	0.521326	4.23431	0.705216	2.70265		
0.409356	2.16211	0.248825	3.06323	0.553139	4.78906	0.703537	3.7422	0.884438	2.45545	0.524922	4.22169	0.707524	2.72549		
0.411188	2.14726	0.25143	3.06256	0.557222	4.81209	0.706726	3.75615	0.886534	2.47391	0.528507	4.2086	0.709852	2.74843		
0.413008	2.13374	0.254035	3.06187	0.561324	4.83339	0.709927	3.76991	0.888646	2.49233	0.532081	4.19503	0.712199	2.77145		
0.414817	2.12153	0.256639	3.0612	0.565444	4.85303	0.713139	3.78349	0.890773	2.51076	0.535643	4.18103	0.714566	2.79463		
0.416617	2.11049	0.259242	3.06058	0.56958	4.87116	0.716362	3.7969	0.892917	2.52913	0.539193	4.16661	0.716953	2.81794		
0.418407	2.10055	0.261845	3.05988	0.57373	4.8878	0.719597	3.8101	0.895075	2.54746	0.54273	4.15173	0.71936	2.84131		
0.42019	2.09165	0.264447	3.0592	0.577894	4.90302	0.722844	3.8232	0.89725	2.56577	0.546255	4.13635	0.721786	2.86482		
0.421965	2.08376	0.267049	3.05858	0.58207	4.91689	0.726101	3.83617	0.89944	2.58407	0.549767	4.12064	0.724233	2.8885		
0.423735	2.07676	0.26965	3.05791	0.586258	4.92948	0.729369	3.84899	0.901646	2.60229	0.553264	4.10452	0.7267	2.91225		
0.425498	2.07065	0.27225	3.05722	0.590455	4.94083	0.732648	3.86162	0.903867	2.6205	0.556748	4.08791	0.729187	2.93608		
0.427257	2.06539	0.27485	3.05659	0.594662	4.951	0.735938	3.87411	0.906103	2.63876	0.560218	4.0709	0.731694	2.96007		
0.429011	2.06079	0.27745	3.05595	0.598877	4.96001	0.739238	3.88654	0.908355	2.65691	0.563673	4.05353	0.734222	2.98418		
0.430762	2.05693	0.280049	3.05531	0.603099	4.96797	0.742549	3.89885	0.910623	2.67505	0.567113	4.03578	0.73677	3.00831		
0.43251	2.0538	0.282647	3.05471	0.607328	4.97492	0.74587	3.91102	0.912905	2.69319	0.570538	4.0176	0.739339	3.03261		
0.434256	2.05119	0.285245	3.05405	0.611562	4.98084	0.749202	3.92308	0.915204	2.71132	0.573947	3.99912	0.741929	3.057		
0.435999	2.0492	0.287842	3.0534	0.615801	4.98581	0.752543	3.93505	0.917518	2.72942	0.577341	3.98026	0.744539	3.08138		
0.437742	2.04777	0.290439	3.05279	0.620043	4.98985	0.755895	3.94693	0.919847	2.74749	0.580718	3.96103	0.74717	3.10593		
0.439483	2.04681	0.293035	3.05221	0.624288	4.993	0.759257	3.95877	0.922191	2.76563	0.584079	3.94151	0.749822	3.13057		
0.441223	2.04633	0.295631	3.0516	0.628536	4.99526	0.762629	3.97051	0.924551	2.78369	0.587423	3.92164	0.752495	3.1552		
0.442964	2.04625	0.298226	3.05097	0.632786	4.99671	0.766011	3.98215	0.926926	2.80175	0.59075	3.90152	0.75519	3.17987		
0.444704	2.04665	0.30082	3.05037	0.637036	4.99735	0.769403	3.99379	0.929317	2.81984	0.594059	3.88107	0.757905	3.2046		
0.446445	2.04741	0.303415	3.0498	0.641286	4.99719	0.772805	4.00535	0.931723	2.83787	0.597351	3.86033	0.760641	3.2294		
0.448187	2.04848	0.306008	3.04923	0.645536	4.99631	0.776216	4.01682	0.934144	2.85592	0.600626	3.83937	0.763398	3.25416		
0.44993	2.04989	0.308601	3.04866	0.649785	4.99466	0.779638	4.02834	0.936581	2.874	0.603882	3.81818	0.766176	3.27889		
0.451674	2.05164	0.311194	3.0481	0.654032	4.99228	0.783069	4.03979	0.939033	2.89203	0.607121	3.79676	0.768975	3.3037		
0.453419	2.05368	0.313786	3.04753	0.658277	4.9892	0.786509	4.05121	0.9415	2.91003	0.610341	3.77513	0.771796	3.32841		
0.455167	2.05598	0.316378	3.04693	0.662519	4.98545	0.78996	4.06262	0.943983	2.9281	0.613542	3.75333	0.774637	3.35309		
0.456917	2.0585	0.318969	3.04639	0.666758	4.98105	0.79342	4.07402	0.946481	2.94616	0.616725	3.73131	0.7775	3.37774		
0.458669	2.06124	0.32156	3.04588	0.670992	4.97596	0.79689	4.08546	0.948995	2.96422	0.619889	3.70919	0.780383	3.40226		
0.460423	2.06426	0.32415	3.04534	0.675222	4.97021	0.80037	4.09683	0.951523	2.98227	0.623035	3.68698	0.783287	3.42676		
0.46218	2.06745	0.32674	3.04479	0.679447	4.96384	0.803859	4.10826	0.954068	3.00032	0.626161	3.6646	0.786212	3.45112		
0.46394	2.07081	0.32933	3.04424	0.683666	4.95685	0.807358	4.11975	0.956627	3.01838	0.629268	3.64214	0.789157	3.47534		
0.465703	2.07434	0.331919	3.04372	0.687878	4.94926	0.810867	4.13119	0.959202	3.03643	0.632356	3.61964	0.792123	3.49948		
