Sym0		Asym0		Sym1		Sym2		Sym3		Asym1		Asym2	
261  Points		395  Points		261  Points		217  Points		133  Points		327  Points		223  Points	
Freq (MHz)	Vgr (m/ms)	Freq (MHz)	Vgr (m/ms)	Freq (MHz)	Vgr (m/ms)	Freq (MHz)	Vgr (m/ms)	Freq (MHz)	Vgr (m/ms)	Freq (MHz)	Vgr (m/ms)	Freq (MHz)	Vgr (m/ms)
0.456392	-0.204024	0.000409956	0.420162	0.456393	-0.203655	0.488346	0.108208	0.912872	0.0122131	0.228252	0.173114	0.684654	0.00899431
0.456237	-0.275357	0.000729584	0.479543	0.456238	-0.275011	0.488429	0.208835	0.912881	0.0189177	0.228384	0.237848	0.684661	0.0144446
0.455973	-0.413196	0.00113956	0.597584	0.455974	-0.412923	0.488664	0.406841	0.912901	0.0323037	0.228614	0.367017	0.684676	0.0252337
0.455609	-0.540148	0.00163878	0.714093	0.455609	-0.53993	0.489048	0.596535	0.91293	0.0457101	0.228942	0.495284	0.684699	0.035958
0.455152	-0.654114	0.00222601	0.828882	0.455153	-0.653917	0.489572	0.7749	0.91297	0.0591572	0.229367	0.622378	0.68473	0.0467318
0.454613	-0.75404	0.00289988	0.941667	0.454614	-0.753884	0.490227	0.940113	0.91302	0.0725958	0.229889	0.748022	0.68477	0.0575152
0.454004	-0.839879	0.00365872	1.05215	0.454006	-0.839718	0.491002	1.09122	0.913081	0.0860177	0.230505	0.871841	0.684818	0.0683176
0.453335	-0.912078	0.00450067	1.16026	0.453337	-0.911903	0.491887	1.22821	0.913151	0.0994059	0.231215	0.993715	0.684874	0.079158
0.452617	-0.971527	0.005424	1.2658	0.452618	-0.971415	0.492871	1.35175	0.913232	0.112817	0.232017	1.1134	0.684938	0.0899848
0.451857	-1.01947	0.00642652	1.36851	0.451859	-1.01939	0.493944	1.46284	0.913323	0.126272	0.232909	1.23061	0.685011	0.100874
0.451066	-1.05723	0.00750612	1.46844	0.451067	-1.05714	0.495096	1.56267	0.913424	0.139728	0.23389	1.34526	0.685092	0.111798
0.450249	-1.08591	0.00866069	1.56541	0.450251	-1.08588	0.496321	1.65244	0.913535	0.153184	0.234956	1.45715	0.685181	0.122703
0.449413	-1.10669	0.00988782	1.65925	0.449415	-1.10669	0.497611	1.73349	0.913657	0.166641	0.236107	1.5661	0.685279	0.133659
0.448565	-1.12062	0.0111852	1.75005	0.448567	-1.12058	0.498959	1.80688	0.913789	0.180099	0.237339	1.67214	0.685384	0.144717
0.447709	-1.12856	0.0125504	1.83772	0.44771	-1.12854	0.50036	1.87355	0.913931	0.193559	0.238651	1.77506	0.685499	0.155799
0.446848	-1.13135	0.0139812	1.92228	0.44685	-1.13137	0.501809	1.93449	0.914083	0.207024	0.24004	1.87487	0.685621	0.16684
0.445987	-1.12966	0.0154751	2.00369	0.445989	-1.12966	0.503303	1.99045	0.914246	0.220499	0.241503	1.97151	0.685753	0.177978
0.445129	-1.12403	0.0170297	2.0819	0.445131	-1.12401	0.504837	2.04208	0.914419	0.233994	0.243039	2.06494	0.685892	0.189221
0.444277	-1.11493	0.0186426	2.15715	0.444279	-1.11494	0.50641	2.08999	0.914602	0.247528	0.244645	2.15521	0.68604	0.200493
0.443433	-1.10284	0.0203117	2.22933	0.443435	-1.10292	0.508017	2.1346	0.914795	0.261052	0.246318	2.24226	0.686197	0.211825
0.442599	-1.08815	0.0220344	2.29843	0.442601	-1.08819	0.509657	2.17637	0.914999	0.274553	0.248056	2.32623	0.686363	0.223186
0.441777	-1.07107	0.0238086	2.36469	0.441779	-1.07112	0.511328	2.21567	0.915213	0.288101	0.249857	2.40705	0.686537	0.234605
0.44097	-1.0519	0.0256322	2.42815	0.440971	-1.05195	0.513029	2.25275	0.915437	0.301651	0.251719	2.48482	0.68672	0.246142
0.440177	-1.03085	0.0275029	2.48877	0.440179	-1.03083	0.514756	2.2879	0.915672	0.315207	0.253638	2.55962	0.686911	0.257732
0.439401	-1.00805	0.0294187	2.54669	0.439403	-1.00807	0.516509	2.32131	0.915917	0.328773	0.255613	2.63146	0.687112	0.269342
0.438643	-0.983706	0.0313776	2.60205	0.438645	-0.98381	0.518288	2.35316	0.916172	0.342359	0.257642	2.70042	0.687321	0.28108
0.437904	-0.957982	0.0333776	2.65492	0.437906	-0.958069	0.52009	2.38357	0.916438	0.355986	0.259722	2.76667	0.687539	0.292893
0.437186	-0.930932	0.0354169	2.70532	0.437187	-0.930986	0.521914	2.41283	0.916714	0.369606	0.261851	2.83017	0.687767	0.30477
0.436488	-0.902667	0.0374936	2.75338	0.436489	-0.902744	0.523761	2.44092	0.917	0.38321	0.264028	2.89108	0.688003	0.316771
0.435812	-0.873317	0.0396061	2.79926	0.435814	-0.873351	0.525628	2.46796	0.917297	0.396874	0.26625	2.94955	0.688249	0.328844
0.435159	-0.842875	0.0417526	2.84293	0.435161	-0.842912	0.527516	2.49414	0.917604	0.410567	0.268515	3.00551	0.688503	0.34097
0.43453	-0.811411	0.0439314	2.88452	0.434531	-0.811455	0.529423	2.5194	0.917922	0.424228	0.270822	3.05911	0.688767	0.353201
0.433925	-0.778984	0.0461412	2.92421	0.433926	-0.779041	0.531349	2.54384	0.91825	0.437916	0.273169	3.11053	0.689041	0.365552
0.433345	-0.745705	0.0483805	2.96195	0.433346	-0.745789	0.533293	2.56758	0.918588	0.451656	0.275246	3.15357	0.689324	0.377966
0.43279	-0.71153	0.0506477	2.99789	0.432791	-0.711577	0.535255	2.59067	0.918937	0.465412	0.277038	3.189	0.689616	0.390504
0.432262	-0.676459	0.0529416	3.03207	0.432263	-0.676523	0.537235	2.61308	0.919296	0.479199	0.278535	3.2175	0.689918	0.403112
0.431761	-0.640583	0.0552609	3.06466	0.431762	-0.640681	0.539231	2.63493	0.919666	0.49296	0.279728	3.23956	0.690229	0.41586
0.431288	-0.603906	0.0576043	3.09566	0.431289	-0.603982	0.541243	2.6562	0.920046	0.506756	0.280611	3.25534	0.69055	0.428706
0.430842	-0.566433	0.0599708	3.1251	0.430843	-0.566555	0.543272	2.67695	0.920437	0.520625	0.281177	3.26529	0.690881	0.441661
0.430426	-0.528176	0.062359	3.15311	0.430427	-0.528299	0.545316	2.69719	0.920838	0.534458	0.281995	3.27947	0.691222	0.454744
0.430039	-0.489158	0.0647681	3.1798	0.430039	-0.489194	0.547376	2.71695	0.92125	0.548309	0.282888	3.29468	0.691573	0.467902
0.429682	-0.449334	0.067197	3.20521	0.429682	-0.449376	0.54945	2.73629	0.921672	0.562197	0.28411	3.31497	0.691934	0.481212
0.429355	-0.408708	0.0696446	3.22936	0.429356	-0.40876	0.551539	2.75522	0.922105	0.57616	0.285665	3.33998	0.692305	0.494645
0.42906	-0.367283	0.0721103	3.2523	0.42906	-0.367357	0.553642	2.77372	0.922549	0.590092	0.287561	3.36941	0.692687	0.508146
0.428796	-0.325069	0.0745928	3.27412	0.428797	-0.325187	0.555759	2.7918	0.923003	0.604052	0.289805	3.40264	0.693079	0.521782
0.428565	-0.282085	0.0770917	3.2949	0.428566	-0.2822	0.55789	2.80955	0.923468	0.618067	0.292408	3.43929	0.693481	0.535599
0.428367	-0.238276	0.0796059	3.31457	0.428367	-0.238386	0.560034	2.82695	0.923943	0.632104	0.295038	3.47443	0.693893	0.549508
0.428203	-0.193627	0.0821346	3.33336	0.428203	-0.193726	0.562191	2.84397	0.92443	0.646185	0.297694	3.50806	0.694317	0.563512
0.428073	-0.148102	0.0846774	3.35121	0.428073	-0.14818	0.564361	2.86062	0.924927	0.660263	0.300375	3.54021	0.694751	0.577706
0.427977	-0.101726	0.0872333	3.36816	0.427977	-0.10185	0.566543	2.87696	0.925434	0.674336	0.303081	3.571	0.695196	0.592009
0.427918	-0.0544533	0.0898019	3.38429	0.427923	-0.0607643	0.568738	2.89306	0.925953	0.688487	0.305809	3.60043	0.695652	0.606443
0.427894	-0.00628376	0.0923824	3.39961	0.427899	-0.025097	0.570945	2.90882	0.926482	0.702707	0.308558	3.62856	0.696118	0.621048
0.427908	0.0428715	0.0949743	3.4142	0.427894	0.00471896	0.573163	2.92421	0.927022	0.716883	0.311329	3.6555	0.696596	0.635727
0.42796	0.0930115	0.0975769	3.42802	0.4279	0.0284657	0.575394	2.93937	0.927572	0.731152	0.31412	3.68121	0.697086	0.650552
0.42805	0.144134	0.10019	3.44115	0.427911	0.0461505	0.577635	2.95428	0.928134	0.745429	0.31693	3.70582	0.697586	0.665581
0.428179	0.196326	0.102812	3.45367	0.42792	0.0575927	0.579888	2.96883	0.928707	0.759718	0.319758	3.72938	0.698098	0.680749
0.428348	0.249578	0.105444	3.46552	0.427936	0.0740461	0.582152	2.98314	0.92929	0.774034	0.322604	3.75188	0.698622	0.696014
0.428559	0.303964	0.108085	3.47677	0.427959	0.0920493	0.584427	2.99723	0.929884	0.788404	0.325467	3.77335	0.699157	0.711473
0.428811	0.359454	0.110734	3.4875	0.427997	0.116757	0.586712	3.01104	0.93049	0.80288	0.328345	3.79382	0.699704	0.727053
0.429106	0.416164	0.113391	3.49767	0.428059	0.148354	0.589008	3.0246	0.931106	0.817301	0.331239	3.81343	0.700263	0.742783
0.429444	0.474146	0.116056	3.50733	0.428154	0.18716	0.591314	3.03789	0.931733	0.831789	0.334147	3.83212	0.700835	0.758726
0.429827	0.533417	0.118727	3.51651	0.428293	0.233342	0.59363	3.05093	0.932371	0.846325	0.337069	3.84994	0.701418	0.774733
0.430256	0.594013	0.121406	3.52519	0.428491	0.287402	0.595956	3.06373	0.933021	0.860864	0.340005	3.86697	0.702013	0.790961
0.430731	0.655911	0.124091	3.5334	0.42873	0.342554	0.598292	3.07633	0.933681	0.875499	0.342953	3.88315	0.702621	0.807359
0.431254	0.719246	0.126782	3.5412	0.429012	0.398924	0.600637	3.0887	0.934353	0.890149	0.345913	3.89855	0.703242	0.823828
0.431825	0.784111	0.129479	3.54863	0.429337	0.456532	0.602991	3.1008	0.935035	0.904826	0.348884	3.91321	0.703875	0.840532
0.432447	0.850421	0.131833	3.55482	0.429707	0.515342	0.605354	3.1127	0.935729	0.919559	0.351866	3.92717	0.70452	0.857433
0.433119	0.918276	0.133843	3.55986	0.430121	0.575559	0.607727	3.1244	0.936434	0.934314	0.354859	3.94043	0.705179	0.874461
0.433844	0.987695	0.135508	3.56381	0.430582	0.637109	0.610108	3.13585	0.937151	0.949113	0.357861	3.95303	0.705851	0.891652
0.434622	1.05872	0.136825	3.56692	0.431091	0.699998	0.612498	3.1471	0.937878	0.963999	0.360873	3.96493	0.706536	0.908992
0.435454	1.13142	0.137795	3.5692	0.431647	0.764363	0.614896	3.15813	0.938617	0.97888	0.363894	3.97618	0.707234	0.926539
0.436343	1.2057	0.138415	3.57061	0.432254	0.830229	0.617303	3.16896	0.939368	0.993842	0.366923	3.98682	0.707945	0.944229
0.437289	1.28168	0.139308	3.57243	0.43291	0.897608	0.619407	3.17823	0.94013	1.00888	0.36996	3.99686	0.70867	0.962117
0.438293	1.35936	0.140279	3.57446	0.433619	0.966551	0.621205	3.18601	0.940903	1.02387	0.373004	4.00631	0.709409	0.980222
0.439357	1.43866	0.1416	3.57738	0.434381	1.03708	0.622695	3.19239	0.941687	1.03897	0.376055	4.01521	0.710162	0.998402
0.440482	1.51959	0.143273	3.58073	0.435197	1.10926	0.623876	3.19744	0.942483	1.05411	0.379113	4.02356	0.710928	1.01682
0.441669	1.60213	0.145297	3.58467	0.436069	1.18312	0.624745	3.20102	0.943291	1.0693	0.382177	4.03133	0.711709	1.03545
0.44292	1.68632	0.147675	3.58915	0.436997	1.25857	0.625302	3.20327	0.94411	1.08453	0.385246	4.03857	0.712504	1.05423
0.444235	1.77198	0.150408	3.594	0.437984	1.33568	0.626103	3.20652	0.944941	1.09983	0.388321	4.04534	0.713313	1.07322
0.445616	1.85898	0.153143	3.59857	0.439029	1.41451	0.626974	3.21006	0.945784	1.11519	0.391401	4.05159	0.714137	1.09237
0.447063	1.9474	0.155883	3.60288	0.440136	1.49501	0.628161	3.21491	0.946638	1.13056	0.394486	4.05727	0.714975	1.11165
0.448578	2.03705	0.158625	3.60696	0.441304	1.57706	0.629665	3.22093	0.947504	1.14604	0.397574	4.06249	0.715717	1.12868
0.450162	2.12773	0.16137	3.61079	0.442535	1.66074	0.631487	3.2281	0.948382	1.1615	0.400666	4.06734	0.716359	1.14329
0.451816	2.21938	0.164119	3.61442	0.443831	1.74595	0.63363	3.23633	0.949271	1.17707	0.403762	4.0716	0.716896	1.15544
0.453539	2.31181	0.16687	3.61784	0.445191	1.83255	0.636096	3.24563	0.950172	1.1927	0.406861	4.07544	0.717325	1.16508
0.455333	2.40482	0.169623	3.62099	0.446619	1.92057	0.638568	3.25477	0.951086	1.20834	0.409963	4.07884	0.717643	1.17206
0.457198	2.49818	0.172379	3.624	0.448114	2.00984	0.641048	3.26369	0.952011	1.22411	0.413067	4.08175	0.717847	1.17673
0.459134	2.59179	0.175137	3.6268	0.449677	2.10022	0.643534	3.27245	0.952948	1.23987	0.416173	4.08428	0.718142	1.18348
0.461141	2.68536	0.177897	3.62942	0.451309	2.19161	0.646026	3.28101	0.953897	1.25568	0.419281	4.08636	0.718464	1.1906
0.463219	2.77857	0.180659	3.63189	0.453011	2.28386	0.648526	3.28941	0.954858	1.27161	0.42239	4.08797	0.718906	1.20046
0.465369	2.87134	0.183423	3.63416	0.454784	2.37667	0.651031	3.29765	0.955832	1.28759	0.425501	4.08919	0.71947	1.213
0.467588	2.96341	0.186188	3.63632	0.456627	2.46995	0.653543	3.30567	0.956817	1.30357	0.428612	4.09006	0.72016	1.22818
0.469877	3.05445	0.188955	3.6383	0.458542	2.56355	0.656061	3.31354	0.957815	1.31967	0.431723	4.09046	0.72098	1.24618
0.472235	3.14431	0.191723	3.64015	0.460527	2.65708	0.658584	3.32124	0.958825	1.3358	0.434835	4.09043	0.721936	1.26699
0.474661	3.23281	0.194493	3.64183	0.462584	2.75045	0.661114	3.32877	0.959848	1.35201	0.437947	4.09001	0.722907	1.28802
0.477154	3.31964	0.197264	3.64339	0.464712	2.84342	0.663649	3.33617	0.960882	1.36829	0.441058	4.08922	0.723895	1.3093
0.479712	3.40469	0.200037	3.64484	0.46691	2.9357	0.666189	3.34336	0.961929	1.38461	0.444168	4.08806	0.724899	1.33066
0.482334	3.48776	0.20281	3.64615	0.469179	3.02709	0.668736	3.35041	0.962989	1.40101	0.447278	4.08645	0.72592	1.35228
0.485018	3.5687	0.205584	3.64739	0.471516	3.11733	0.671287	3.3573	0.964061	1.41748	0.450386	4.08448	0.726957	1.37417
0.487763	3.64741	0.208359	3.6485	0.473921	3.20622	0.673844	3.36398	0.965146	1.434	0.453492	4.08215	0.728011	1.3962
0.490568	3.72366	0.211135	3.64946	0.476394	3.29359	0.676405	3.37055	0.966243	1.45054	0.456597	4.07941	0.729081	1.41842
0.493429	3.79749	0.213912	3.65034	0.478932	3.37921	0.678972	3.37697	0.967352	1.46721	0.459699	4.0763	0.730169	1.44083
0.496345	3.86881	0.216689	3.65114	0.481535	3.46288	0.681543	3.38323	0.968475	1.48395	0.462798	4.07285	0.731273	1.46348
0.499315	3.93745	0.219467	3.65186	0.484201	3.5445	0.684119	3.38937	0.96961	1.50076	0.465895	4.06898	0.732395	1.48637
0.502336	4.0035	0.222245	3.65249	0.486928	3.62388	0.6867	3.39535	0.970758	1.51759	0.468989	4.06475	0.733535	1.50944
0.505406	4.06688	0.225024	3.65302	0.489715	3.70089	0.689285	3.40117	0.971769	1.5323	0.47208	4.06022	0.734692	1.53267
0.508524	4.12763	0.227803	3.65347	0.492559	3.77545	0.691874	3.40681	0.972639	1.54494	0.475167	4.05526	0.735867	1.55613
0.511686	4.1858	0.230582	3.65383	0.495459	3.84754	0.694468	3.41237	0.973363	1.55543	0.47825	4.05	0.737059	1.57984
0.514892	4.24131	0.233362	3.6541	0.498413	3.917	0.697066	3.41779	0.973939	1.5636	0.481328	4.04437	0.73827	1.60371
0.518139	4.29421	0.236142	3.65432	0.501418	3.98379	0.699668	3.42302	0.974365	1.56984	0.484403	4.03832	0.739499	1.6278
0.521425	4.34466	0.238922	3.65452	0.504474	4.04805	0.702274	3.42814	0.974638	1.57379	0.487473	4.03193	0.740747	1.65209
0.524749	4.39264	0.241702	3.65463	0.507577	4.1096	0.704884	3.43317	0.975032	1.57923	0.490537	4.02524	0.742013	1.67657
0.528109	4.43818	0.244482	3.65463	0.510726	4.1685	0.707498	3.43802	0.975462	1.58534	0.493597	4.01822	0.743298	1.70128
0.531502	4.48146	0.247262	3.65459	0.513919	4.22481	0.710115	3.44277	0.97605	1.59375	0.496651	4.01085	0.744601	1.72619
0.534927	4.52245	0.250042	3.65457	0.517154	4.27849	0.712736	3.44744	0.976797	1.60435	0.499699	4.00313	0.745924	1.7513
0.538382	4.56128	0.252823	3.65442	0.520429	4.32968	0.71536	3.45192	0.977707	1.61718	0.502741	3.99501	0.747266	1.77659
0.541867	4.59803	0.255603	3.65417	0.523742	4.37842	0.717988	3.45632	0.978784	1.63222	0.505777	3.98664	0.748627	1.80211
0.545378	4.63269	0.258382	3.65396	0.52709	4.42468	0.720618	3.46058	0.980032	1.64961	0.508807	3.97793	0.750008	1.82778
0.548915	4.66541	0.261162	3.65371	0.530474	4.46862	0.723253	3.46473	0.981294	1.6671	0.51183	3.96886	0.751408	1.85367
0.552476	4.69631	0.263941	3.65337	0.533889	4.51033	0.72589	3.46882	0.982569	1.68459	0.514845	3.95948	0.752828	1.87976
0.55606	4.72538	0.26672	3.65297	0.537336	4.54979	0.72853	3.4728	0.983857	1.70217	0.517854	3.94977	0.754268	1.90599
0.559666	4.75274	0.269499	3.65255	0.540812	4.58711	0.731174	3.47667	0.985159	1.71979	0.520855	3.9398	0.755728	1.93242
0.563291	4.7785	0.272277	3.65211	0.544315	4.6224	0.73382	3.4804	0.986473	1.73749	0.523848	3.92953	0.757208	1.95905
0.566936	4.80266	0.275056	3.65162	0.547844	4.65571	0.736469	3.48406	0.987802	1.7553	0.526833	3.91887	0.758708	1.98587
0.570598	4.82531	0.277833	3.65107	0.551398	4.68716	0.739121	3.48768	0.989144	1.77318	0.52981	3.90794	0.760229	2.01286
0.574277	4.84649	0.28061	3.65052	0.554976	4.71683	0.741775	3.49115	0.9905	1.79109	0.532779	3.89677	0.761771	2.03995
0.577972	4.86634	0.283387	3.64993	0.558575	4.74468	0.744432	3.49455	0.991869	1.80906	0.535739	3.88527	0.763333	2.06722
0.581681	4.88486	0.286164	3.64932	0.562194	4.77089	0.747092	3.4979	0.993252	1.82711	0.53869	3.87346	0.764916	2.09471
0.585404	4.90208	0.28894	3.64866	0.565833	4.79552	0.749754	3.5012	0.994649	1.84519	0.541632	3.86142	0.76652	2.12232
0.58914	4.91812	0.291715	3.64797	0.569491	4.8186	0.752419	3.50441	0.99606	1.86338	0.544565	3.84911	0.768145	2.15007
0.592887	4.93299	0.29449	3.64727	0.573165	4.84023	0.755086	3.50755	0.997484	1.88167	0.547489	3.8365	0.769791	2.17794
0.596645	4.94677	0.297264	3.64651	0.576855	4.86047	0.757755	3.51059	0.998922	1.89997	0.550402	3.8237	0.771459	2.20596
0.600413	4.95951	0.300038	3.64577	0.58056	4.87942	0.760427	3.51364	1.00037	1.90908	0.553306	3.81061	0.773148	2.2341
0.604191	4.97119	0.302811	3.64496	0.584278	4.89702	0.763101	3.51665			0.5562	3.79725	0.774858	2.26234
0.607977	4.9819	0.305583	3.64415	0.58801	4.91339	0.765778	3.51958			0.559083	3.7837	0.77659	2.29068
0.61177	4.99166	0.308355	3.64334	0.591754	4.92867	0.768456	3.52249			0.561957	3.76994	0.778343	2.31915
0.615571	5.0005	0.311127	3.64248	0.595509	4.94272	0.771137	3.52533			0.564819	3.75597	0.780118	2.34775
0.619378	5.0085	0.313897	3.64161	0.599274	4.95575	0.77382	3.52819			0.567671	3.74171	0.781915	2.37635
0.623191	5.0156	0.316667	3.64072	0.603049	4.96779	0.776505	3.53105			0.570512	3.72732	0.783734	2.405
0.627009	5.02193	0.319436	3.63983	0.606832	4.97874	0.779192	3.53387			0.573342	3.71277	0.785574	2.43377
0.630832	5.02748	0.322205	3.63894	0.610624	4.98879	0.781881	3.53667			0.576161	3.69801	0.787436	2.46264
0.634658	5.03223	0.324973	3.638	0.614423	4.99794	0.784573	3.53951			0.578968	3.68309	0.789321	2.49152
0.638488	5.03625	0.32774	3.63699	0.618228	5.00615	0.787267	3.54232			0.581765	3.668	0.791227	2.52036
0.642321	5.03953	0.330506	3.63603	0.622039	5.01357	0.789962	3.54516			0.584549	3.65279	0.793155	2.54926
0.646156	5.04215	0.333272	3.63511	0.625856	5.02016	0.79266	3.54806			0.587322	3.63743	0.795106	2.5782
0.649992	5.04407	0.336037	3.63411	0.629677	5.02587	0.795361	3.55094			0.590083	3.62194	0.797078	2.60707
0.65383	5.04531	0.338801	3.63307	0.633502	5.03083	0.798063	3.55386			0.592833	3.60639	0.799072	2.63599
0.657668	5.0459	0.341564	3.6321	0.637331	5.03511	0.800768	3.55685			0.59557	3.59073	0.801089	2.66485
0.661507	5.04582	0.344327	3.63108	0.641163	5.03864	0.803475	3.55991			0.598296	3.57495	0.803127	2.69363
0.665345	5.04514	0.347089	3.62999	0.644997	5.04143	0.806184	3.56301			0.601009	3.55917	0.805187	2.72242
0.669183	5.04385	0.34985	3.62899	0.648833	5.04355	0.808896	3.56614			0.603711	3.54325	0.807269	2.75112
0.673019	5.04201	0.35261	3.62795	0.652671	5.04497	0.81161	3.5694			0.6064	3.52731	0.809372	2.77969
0.676854	5.03948	0.35537	3.62685	0.656509	5.04576	0.814326	3.57278			0.609078	3.51136	0.811498	2.80819
0.680687	5.0364	0.358128	3.62581	0.660348	5.04594	0.817045	3.57622			0.611743	3.49535	0.813645	2.83666
0.684517	5.03274	0.360886	3.62475	0.664186	5.04544	0.819767	3.57978			0.614396	3.47936	0.815814	2.86493
0.688344	5.02848	0.363643	3.62364	0.668024	5.0443	0.822492	3.58349			0.617036	3.46339	0.818004	2.89306
0.692167	5.02365	0.366399	3.62254	0.671861	5.04261	0.825219	3.58727			0.619665	3.44746	0.820215	2.92103
0.695987	5.01828	0.369155	3.6215	0.675696	5.04028	0.82795	3.59118			0.622281	3.43147	0.822448	2.94887
0.699802	5.01238	0.371909	3.6204	0.679529	5.03737	0.830683	3.59533			0.624886	3.41558	0.824702	2.97657
0.703613	5.00588	0.374663	3.61926	0.68336	5.03394	0.83342	3.59961			0.627478	3.39978	0.826977	3.004
0.707419	4.9988	0.377416	3.61816	0.687188	5.02984	0.83616	3.60399			0.630058	3.38399	0.829272	3.03126
0.711219	4.99119	0.380168	3.61707	0.691013	5.02515	0.838903	3.6086			0.632627	3.36829	0.831589	3.05831
0.715012	4.98306	0.382919	3.61594	0.694834	5.01998	0.84165	3.61342			0.635183	3.35268	0.833925	3.08515
0.7188	4.97433	0.385669	3.61479	0.698651	5.01421	0.844401	3.61843			0.637728	3.33721	0.836283	3.11171
0.722581	4.96504	0.388419	3.61372	0.702463	5.00787	0.847155	3.62362			0.64026	3.3218	0.83866	3.13804
0.726354	4.95525	0.391167	3.61261	0.70627	5.00102	0.849914	3.62909			0.642782	3.30657	0.841057	3.16408
0.73012	4.9449	0.393915	3.61142	0.710072	4.99356	0.852677	3.63479			0.645291	3.2915	0.843474	3.18984
0.733878	4.93398	0.396662	3.61033	0.713867	4.98553	0.855444	3.64068			0.647789	3.27652	0.84591	3.21537
