Sym0		Asym0		Sym1		Sym2		Sym3		Asym1		Asym2	
476  Points		491  Points		475  Points		230  Points		129  Points		395  Points		143  Points	
Freq (MHz)	Vph (m/ms)	Freq (MHz)	Vph (m/ms)	Freq (MHz)	Vph (m/ms)	Freq (MHz)	Vph (m/ms)	Freq (MHz)	Vph (m/ms)	Freq (MHz)	Vph (m/ms)	Freq (MHz)	Vph (m/ms)
0.00105019	8.27337	0.000602668	0.267764	0.00295868	8.2735	0.279564	339.504	0.361826	1332.56	0.139835	247.31	0.419266	1875.76
0.00875815	8.27309	0.00119426	0.375265	0.0106663	8.27292	0.27976	159.394	0.361894	300.771	0.140321	93.7271	0.419353	363.01
0.0164642	8.27211	0.00197276	0.479507	0.0183716	8.27176	0.280096	104.247	0.362049	169.585	0.141239	58.1515	0.419559	201.043
0.0241665	8.27048	0.00292554	0.579793	0.0260727	8.26999	0.280571	77.5373	0.362291	118.141	0.14258	42.4282	0.419882	139.098
0.0318635	8.26825	0.00403841	0.675599	0.0337681	8.2676	0.281183	61.7954	0.362622	90.694	0.14433	33.626	0.420322	106.403
0.0395532	8.26538	0.00529608	0.766524	0.0414558	8.26458	0.281929	51.4289	0.363043	73.6396	0.146469	28.0383	0.420879	86.2104
0.047234	8.26187	0.00668314	0.852342	0.049134	8.2609	0.282806	44.0946	0.363556	62.0224	0.148979	24.2022	0.421552	72.5102
0.0549037	8.25768	0.00818442	0.932952	0.0568007	8.25654	0.283809	38.6381	0.364164	53.6056	0.151837	21.4239	0.42234	62.6117
0.0625603	8.2528	0.00978561	1.00838	0.0644537	8.25148	0.284935	34.4248	0.364868	47.2316	0.155021	19.3317	0.423243	55.1307
0.0702018	8.2472	0.0114732	1.07871	0.072091	8.2457	0.286177	31.0768	0.365673	42.2412	0.158507	17.7089	0.424259	49.2821
0.0778256	8.24085	0.013235	1.14413	0.0797102	8.23915	0.287533	28.3552	0.366582	38.2315	0.162273	16.4204	0.425387	44.5877
0.0854295	8.23371	0.01506	1.20486	0.0873087	8.23181	0.288994	26.1012	0.367598	34.9422	0.166298	15.3779	0.426626	40.7391
0.0930106	8.22573	0.0169385	1.26114	0.0948838	8.22363	0.290557	24.2055	0.368726	32.1979	0.17056	14.5209	0.427975	37.529
0.100566	8.21688	0.018862	1.31326	0.102433	8.21455	0.292215	22.5902	0.36997	29.8759	0.17504	13.8072	0.429432	34.8125
0.108093	8.20709	0.0208232	1.36148	0.109952	8.20452	0.293963	21.1985	0.371334	27.8878	0.179719	13.2058	0.430995	32.4857
0.115587	8.19631	0.0228156	1.4061	0.117437	8.19348	0.295794	19.9876	0.372823	26.1686	0.184582	12.694	0.432664	30.4715
0.123046	8.18446	0.0248339	1.44738	0.124886	8.18136	0.297705	18.9252	0.374442	24.669	0.189611	12.2546	0.434435	28.7123
0.130464	8.17147	0.0266101	1.48083	0.132293	8.16806	0.299689	17.9861	0.376195	23.3511	0.194792	11.8745	0.436307	27.1634
0.137836	8.15723	0.028135	1.50762	0.139654	8.15351	0.301743	17.1504	0.378087	22.1855	0.200112	11.5432	0.438279	25.7902
0.145159	8.14167	0.0294024	1.52865	0.146963	8.13759	0.303864	16.4023	0.380121	21.1487	0.205558	11.2526	0.440348	24.5651
0.152425	8.12465	0.0304081	1.5446	0.154215	8.1202	0.306049	15.7292	0.382302	20.2218	0.21112	10.9962	0.442512	23.4662
0.159629	8.10607	0.0311494	1.55595	0.161402	8.10121	0.308299	15.1208	0.384633	19.3896	0.216786	10.7687	0.444769	22.4755
0.166763	8.08578	0.0316246	1.56306	0.168517	8.08048	0.310613	14.5686	0.387117	18.6393	0.222547	10.5659	0.447117	21.5782
0.173819	8.06363	0.0323086	1.57307	0.175553	8.05784	0.312994	14.0656	0.389756	17.9607	0.228394	10.3842	0.449555	20.7622
0.180788	8.03945	0.0330533	1.58367	0.182499	8.03313	0.315446	13.6061	0.392551	17.3448	0.234319	10.2206	0.452078	20.0175
0.18766	8.01305	0.034068	1.59764	0.189345	8.00615	0.317975	13.1853	0.395503	16.7843	0.240314	10.0728	0.454686	19.3353
0.194425	7.98425	0.0353539	1.61461	0.196081	7.97672	0.320588	12.7992	0.398612	16.2728	0.246372	9.93857	0.457376	18.7084
0.201069	7.95282	0.0369124	1.63414	0.202694	7.94461	0.323295	12.4444	0.401877	15.8049	0.252487	9.81631	0.460146	18.1308
0.20758	7.91854	0.0387446	1.65574	0.20917	7.90959	0.326108	12.1181	0.405297	15.376	0.258653	9.70449	0.462994	17.597
0.213943	7.88119	0.0408514	1.67892	0.215494	7.87144	0.329039	11.8178	0.40887	14.982	0.264863	9.60184	0.465917	17.1025
0.220145	7.84052	0.0429616	1.70053	0.221653	7.82992	0.332104	11.5417	0.412592	14.6193	0.271112	9.50728	0.468912	16.6432
0.226167	7.79633	0.0450743	1.7207	0.226872	7.79082	0.335317	11.2879	0.416461	14.2848	0.277396	9.41987	0.471979	16.2158
0.231996	7.7484	0.0471887	1.73955	0.231203	7.75525	0.338695	11.0548	0.420473	13.9758	0.283709	9.33878	0.475114	15.8172
0.237615	7.69656	0.0493041	1.75718	0.234699	7.72421	0.342252	10.8413	0.424623	13.6898	0.290047	9.26331	0.478316	15.4448
0.243009	7.64071	0.0514202	1.7737	0.237405	7.69861	0.346003	10.6459	0.428909	13.4247	0.296405	9.19284	0.481582	15.0961
0.248166	7.58076	0.0535365	1.7892	0.239361	7.67919	0.34996	10.4676	0.433324	13.1786	0.30278	9.12681	0.48491	14.7691
0.253074	7.51675	0.0556526	1.80375	0.240598	7.66648	0.354133	10.3052	0.437865	12.9498	0.309166	9.06473	0.488299	14.4619
0.257725	7.44878	0.0577684	1.81745	0.242354	7.64785	0.358528	10.1577	0.442527	12.7367	0.31556	9.00619	0.491746	14.1729
0.262116	7.37704	0.0598836	1.83034	0.244234	7.62709	0.363147	10.024	0.447305	12.538	0.321959	8.95079	0.49525	13.9006
0.266246	7.30181	0.061998	1.8425	0.246742	7.59802	0.36799	9.90298	0.452194	12.3525	0.328357	8.8982	0.498808	13.6437
0.270119	7.22344	0.0641117	1.85398	0.24983	7.55988	0.373051	9.79361	0.457191	12.179	0.334752	8.8481	0.502419	13.4009
0.273741	7.14236	0.0662244	1.86483	0.253437	7.51171	0.37832	9.69482	0.462291	12.0166	0.34114	8.80023	0.506082	13.1713
0.277124	7.05903	0.0683361	1.8751	0.257488	7.45244	0.383788	9.60559	0.46749	11.8644	0.347517	8.75433	0.509795	12.9538
0.280281	6.97393	0.0704468	1.88483	0.261892	7.38089	0.38944	9.52494	0.472783	11.7216	0.353879	8.71017	0.513556	12.7476
0.283225	6.88753	0.0725564	1.89406	0.266036	7.30583	0.395261	9.45194	0.478166	11.5874	0.360223	8.66754	0.517366	12.5519
0.285974	6.80029	0.0746651	1.90283	0.269922	7.22762	0.401237	9.38573	0.483637	11.4612	0.366545	8.62627	0.521222	12.3659
0.288542	6.71264	0.0767727	1.91116	0.273558	7.14667	0.407352	9.32552	0.489192	11.3424	0.37284	8.58616	0.525124	12.1891
0.290947	6.62498	0.0788793	1.91909	0.276953	7.06345	0.41359	9.27059	0.494827	11.2304	0.379106	8.54707	0.529071	12.0207
0.293203	6.53765	0.0809848	1.92665	0.280121	6.97843	0.419937	9.2203	0.500539	11.1248	0.385338	8.50884	0.533062	11.8604
0.295325	6.45095	0.0830895	1.93385	0.283076	6.89208	0.426379	9.17408	0.506325	11.0251	0.391532	8.47134	0.537098	11.7075
0.297326	6.36513	0.0851931	1.94073	0.285834	6.80487	0.432904	9.13141	0.512182	10.9309	0.397685	8.43443	0.541178	11.5616
0.29922	6.28041	0.0872958	1.9473	0.288412	6.71724	0.439499	9.09186	0.518109	10.8418	0.403791	8.398	0.545302	11.4223
0.301018	6.19696	0.0893976	1.95358	0.290825	6.62957	0.446155	9.05501	0.524101	10.7575	0.409848	8.36193	0.54947	11.2893
0.302729	6.11491	0.0914986	1.9596	0.293088	6.54222	0.45286	9.02053	0.530158	10.6776	0.41585	8.32612	0.553684	11.1622
0.304364	6.03437	0.0935987	1.96536	0.295216	6.45548	0.459607	8.9881	0.536276	10.6019	0.421794	8.29048	0.557943	11.0407
0.305931	5.95542	0.095698	1.97088	0.297224	6.36961	0.466386	8.95747	0.542454	10.5301	0.427675	8.2549	0.562248	10.9245
0.307437	5.87813	0.0977966	1.97618	0.299123	6.28482	0.47319	8.92839	0.54869	10.4619	0.433489	8.21931	0.5666	10.8133
0.308889	5.80253	0.0998944	1.98127	0.300926	6.2013	0.480013	8.90066	0.554982	10.3972	0.439231	8.18362	0.571001	10.7069
0.310293	5.72864	0.101992	1.98616	0.302641	6.11917	0.486848	8.87409	0.561327	10.3356	0.444174	8.15238	0.575452	10.6051
0.311655	5.65648	0.104088	1.99087	0.30428	6.03855	0.49369	8.84852	0.567726	10.2772	0.448339	8.12561	0.579953	10.5076
0.312978	5.58604	0.106184	1.99539	0.30585	5.95952	0.500532	8.82382	0.574175	10.2215	0.45175	8.10336	0.584507	10.4143
0.314268	5.51732	0.108279	1.99975	0.30736	5.88214	0.507371	8.79984	0.580673	10.1685	0.454423	8.08569	0.589115	10.325
0.315528	5.45029	0.110374	2.00396	0.308814	5.80645	0.514201	8.77648	0.58722	10.1181	0.456376	8.07264	0.593778	10.2396
0.316762	5.38494	0.112468	2.00801	0.310221	5.73247	0.521019	8.75364	0.593813	10.07	0.45762	8.06427	0.598498	10.1577
0.317973	5.32124	0.114561	2.01192	0.311584	5.66022	0.52782	8.73124	0.600451	10.0242	0.4594	8.0522	0.603275	10.0795
0.319163	5.25915	0.116654	2.01569	0.31291	5.58969	0.534601	8.70917	0.607132	9.98052	0.461324	8.03903	0.608113	10.0045
0.320335	5.19865	0.118747	2.01934	0.314201	5.52088	0.541357	8.68739	0.613856	9.93883	0.463921	8.02104	0.61301	9.93286
0.321491	5.1397	0.120839	2.02287	0.315463	5.45376	0.548087	8.66582	0.620621	9.89903	0.467174	7.99814	0.617969	9.8643
0.322633	5.08227	0.12293	2.02628	0.316698	5.38832	0.554786	8.6444	0.627425	9.86102	0.471059	7.97021	0.62299	9.79871
0.323764	5.0263	0.125021	2.02958	0.31791	5.32454	0.561452	8.62308	0.634268	9.8247	0.475548	7.93712	0.628073	9.73599
0.324884	4.97178	0.127112	2.03277	0.319101	5.26237	0.568082	8.60182	0.641147	9.78997	0.480604	7.89868	0.633219	9.67601
0.325995	4.91865	0.129202	2.03587	0.320274	5.20178	0.574673	8.58057	0.648061	9.75675	0.485555	7.8597	0.638426	9.61864
0.327099	4.86689	0.131293	2.03887	0.321431	5.14275	0.581223	8.55929	0.65501	9.72495	0.490399	7.82018	0.643695	9.56377
0.328196	4.81645	0.133382	2.04178	0.322574	5.08524	0.587728	8.53794	0.66199	9.69448	0.495135	7.7801	0.649025	9.5113
0.329288	4.7673	0.135471	2.0446	0.323705	5.0292	0.594187	8.51651	0.669002	9.66529	0.49976	7.73947	0.654414	9.46109
0.330377	4.71939	0.13756	2.04734	0.324825	4.9746	0.600598	8.49495	0.676042	9.63728	0.504273	7.69829	0.65986	9.41304
0.331461	4.6727	0.139649	2.05	0.325937	4.92141	0.606958	8.47324	0.68311	9.61039	0.508673	7.65656	0.665363	9.36705
0.332544	4.62718	0.141737	2.05258	0.327041	4.86957	0.613264	8.45136	0.690203	9.58455	0.51296	7.61431	0.67092	9.32299
0.333624	4.58281	0.143825	2.05509	0.328139	4.81906	0.618715	8.43214	0.69732	9.5597	0.517134	7.57155	0.676528	9.28077
0.334704	4.53954	0.145913	2.05753	0.329231	4.76984	0.623328	8.41562	0.704459	9.53577	0.521196	7.52832	0.682186	9.24028
0.335784	4.49735	0.148001	2.0599	0.33032	4.72187	0.627119	8.40187	0.711617	9.51269	0.525145	7.48464	0.68789	9.20142
0.336863	4.4562	0.150088	2.06221	0.331405	4.67512	0.6301	8.39094	0.718793	9.49042	0.528985	7.44056	0.693638	9.16409
0.337944	4.41607	0.152175	2.06446	0.332487	4.62954	0.632283	8.38286	0.725985	9.46889	0.532715	7.39611	0.699426	9.1282
0.339026	4.37692	0.154262	2.06665	0.333568	4.58511	0.633676	8.37768	0.733189	9.44805	0.536339	7.35132	0.705252	9.09366
0.340109	4.33872	0.156348	2.06878	0.334648	4.54178	0.635672	8.3702	0.740405	9.42783	0.539858	7.30626	0.711112	9.06037
0.341195	4.30144	0.158434	2.07085	0.335727	4.49954	0.637835	8.36204	0.747628	9.40819	0.543275	7.26094	0.717003	9.02826
0.342283	4.26506	0.16052	2.07288	0.336807	4.45834	0.640764	8.3509	0.754857	9.38908	0.546592	7.21544	0.722922	8.99725
0.343374	4.22955	0.162606	2.07485	0.337887	4.41815	0.644447	8.33671	0.762088	9.37043	0.549814	7.16978	0.728867	8.96725
0.344468	4.19489	0.164692	2.07677	0.338969	4.37895	0.648868	8.31941	0.769319	9.35221	0.552941	7.124	0.734832	8.93819
0.345565	4.16104	0.166778	2.07865	0.340052	4.3407	0.654007	8.29892	0.776547	9.33435	0.555978	7.07817	0.740817	8.91001
0.346666	4.12799	0.168863	2.08048	0.341138	4.30337	0.659843	8.27514	0.783768	9.31681	0.558928	7.03231	0.746817	8.88263
0.347771	4.09571	0.170948	2.08227	0.342226	4.26695	0.66561	8.25105	0.79098	9.29955	0.561793	6.98646	0.752829	8.856
0.348881	4.06418	0.173033	2.08401	0.343316	4.23139	0.671307	8.22666	0.798179	9.28251	0.564577	6.94067	0.75885	8.83005
0.349994	4.03337	0.175118	2.08572	0.34441	4.19668	0.676933	8.20196	0.805362	9.26564	0.567284	6.89496	0.764878	8.80474
0.350968	4.00711	0.177202	2.08738	0.345508	4.16279	0.682487	8.17694	0.812525	9.24891	0.569915	6.84939	0.770909	8.78
0.351801	3.98513	0.179287	2.08901	0.346608	4.1297	0.687966	8.1516	0.819664	9.23227	0.572475	6.80397	0.77694	8.75578
0.352492	3.96723	0.181371	2.0906	0.347713	4.09738	0.693372	8.12594	0.826777	9.21567	0.574967	6.75874	0.782195	8.73507
0.35304	3.95326	0.183455	2.09216	0.348822	4.06581	0.698701	8.09995	0.83386	9.19909	0.577392	6.71372	0.786672	8.71769
0.353443	3.94309	0.18554	2.09368	0.349936	4.03497	0.703954	8.07365	0.84091	9.18248	0.579755	6.66895	0.790371	8.70348
0.353702	3.93662	0.187623	2.09517	0.351054	4.00483	0.70913	8.04702	0.847923	9.16581	0.582058	6.62444	0.793293	8.69235
0.354074	3.92738	0.189707	2.09662	0.352176	3.97539	0.714227	8.02007	0.854897	9.14905	0.584304	6.58022	0.795441	8.68421
0.354479	3.91741	0.191791	2.09805	0.353303	3.94661	0.719246	7.99281	0.861829	9.13219	0.586495	6.53631	0.796815	8.67903
0.355031	3.90399	0.193875	2.09944	0.354436	3.91847	0.724187	7.96524	0.868718	9.11519	0.588633	6.49273	0.798789	8.67162
0.355731	3.88722	0.195958	2.10081	0.355573	3.89097	0.729048	7.93737	0.875562	9.09806	0.590722	6.44949	0.800933	8.6636
0.35658	3.86725	0.198041	2.10215	0.356716	3.86408	0.73383	7.90921	0.882359	9.08077	0.592763	6.40661	0.803846	8.65276
0.357579	3.84424	0.200125	2.10346	0.357864	3.83778	0.738533	7.88075	0.889109	9.06333	0.594759	6.3641	0.807525	8.63914
0.358731	3.81838	0.202208	2.10474	0.359017	3.81206	0.743156	7.85202	0.895811	9.04575	0.596712	6.32197	0.811968	8.62282
0.359889	3.79308	0.204291	2.106	0.360176	3.7869	0.7477	7.82303	0.902466	9.02801	0.598624	6.28023	0.817166	8.60384
0.361052	3.76833	0.206374	2.10723	0.36134	3.76229	0.752166	7.79378	0.909075	9.01015	0.600497	6.2389	0.823114	8.58228
0.36222	3.74412	0.208456	2.10844	0.36251	3.73821	0.756553	7.76428	0.915639	8.99216	0.602333	6.19797	0.82904	8.5609
0.363394	3.72043	0.210539	2.10963	0.363686	3.71464	0.760863	7.73455	0.921322	8.97641	0.604133	6.15746	0.834942	8.53969
0.364574	3.69724	0.212622	2.11079	0.364867	3.69158	0.765095	7.70461	0.926141	8.96292	0.605899	6.11737	0.840819	8.51862
0.36576	3.67455	0.214704	2.11193	0.366055	3.66901	0.769251	7.67445	0.930109	8.95174	0.607633	6.07771	0.846667	8.49766
0.366952	3.65233	0.216787	2.11305	0.367248	3.64691	0.773332	7.64411	0.933235	8.94288	0.609337	6.03848	0.852485	8.47678
0.368149	3.63058	0.218869	2.11415	0.368447	3.62527	0.777337	7.61359	0.935528	8.93635	0.611012	5.99968	0.858271	8.45598
0.369352	3.60929	0.220951	2.11522	0.369651	3.60408	0.781269	7.5829	0.936993	8.93217	0.612659	5.96132	0.864023	8.43522
0.370562	3.58843	0.223034	2.11628	0.370862	3.58334	0.785129	7.55207	0.939095	8.92616	0.614279	5.92339	0.869739	8.41449
0.371777	3.56801	0.225116	2.11732	0.372078	3.56302	0.788917	7.5211	0.941375	8.91962	0.615875	5.8859	0.875418	8.39376
0.372998	3.548	0.227198	2.11834	0.373301	3.54311	0.792634	7.49001	0.944468	8.91073	0.617447	5.84884	0.881056	8.37303
0.374224	3.5284	0.22928	2.11934	0.374529	3.52361	0.796282	7.45882	0.948368	8.89946	0.618996	5.81222	0.886654	8.35227
0.375457	3.5092	0.231362	2.12032	0.375763	3.5045	0.799863	7.42753	0.953066	8.88584	0.620524	5.77603	0.892209	8.33147
0.376696	3.49038	0.233443	2.12129	0.377004	3.48578	0.803376	7.39617	0.958553	8.86985	0.622032	5.74028	0.897719	8.31063
0.377941	3.47194	0.235525	2.12224	0.37825	3.46743	0.806824	7.36474	0.964818	8.85152	0.62352	5.70496	0.903184	8.28971
0.379191	3.45387	0.237607	2.12317	0.379502	3.44945	0.810208	7.33327	0.971052	8.8332	0.624989	5.67007	0.908601	8.26873
0.380448	3.43615	0.239688	2.12409	0.38076	3.43182	0.81353	7.30176	0.977254	8.81491	0.626441	5.63561	0.91397	8.24766
0.381711	3.41879	0.24177	2.12499	0.382024	3.41454	0.81679	7.27022	0.983427	8.79667	0.627877	5.60157	0.91929	8.2265
0.382979	3.40176	0.243851	2.12588	0.383294	3.3976	0.81999	7.23867	0.989572	8.77847	0.629296	5.56796	0.924558	8.20523
0.384253	3.38507	0.245933	2.12675	0.38457	3.38098	0.823131	7.20713	0.995688	8.76033	0.630701	5.53476	0.929775	8.18387
0.385533	3.3687	0.248014	2.1276	0.385851	3.36469	0.826215	7.17559	1.00178	8.74223	0.632091	5.50197	0.93494	8.16238
0.386819	3.35264	0.250096	2.12845	0.387139	3.34871	0.829243	7.14408			0.633468	5.4696	0.94005	8.14078
0.388111	3.33689	0.252177	2.12928	0.388432	3.33304	0.832217	7.11261			0.634832	5.43763	0.945107	8.11906
0.389409	3.32144	0.254258	2.13009	0.389731	3.31766	0.835137	7.08118			0.636184	5.40607	0.950108	8.09722
0.390713	3.30629	0.256339	2.1309	0.391036	3.30258	0.838005	7.04981			0.637524	5.3749	0.955054	8.07525
0.392022	3.29141	0.25842	2.13169	0.392347	3.28778	0.840823	7.0185			0.638853	5.34414	0.959944	8.05315
0.393337	3.27682	0.260501	2.13246	0.393663	3.27325	0.843591	6.98727			0.640172	5.31375	0.964777	8.03093
0.394658	3.2625	0.262582	2.13323	0.394986	3.259	0.846311	6.95612			0.641482	5.28376	0.969553	8.00858
0.395984	3.24845	0.264663	2.13398	0.396313	3.24501	0.848984	6.92506			0.642782	5.25415	0.974273	7.9861
0.397316	3.23465	0.266744	2.13472	0.397647	3.23128	0.851612	6.8941			0.644073	5.22491	0.978935	7.9635
0.398654	3.22111	0.268825	2.13545	0.398986	3.2178	0.854196	6.86325			0.645356	5.19605	0.98354	7.94077
0.399997	3.20782	0.270906	2.13617	0.400331	3.20456	0.856736	6.83252			0.646631	5.16755	0.988087	7.91793
0.401346	3.19476	0.272987	2.13688	0.401681	3.19157	0.859235	6.8019			0.647899	5.13942	0.992578	7.89497
0.402701	3.18195	0.275067	2.13758	0.403037	3.17881	0.861692	6.77141			0.64916	5.11164	0.997011	7.87189
0.404061	3.16936	0.277148	2.13827	0.404398	3.16628	0.86411	6.74106			0.650415	5.08422	1.00139	7.84871
0.405426	3.157	0.279229	2.13894	0.405765	3.15397	0.86649	6.71085			0.651663	5.05715		
0.406797	3.14486	0.281309	2.13961	0.407137	3.14189	0.868832	6.68078			0.652905	5.03042		
0.408173	3.13293	0.28339	2.14027	0.408515	3.13001	0.871137	6.65085			0.654142	5.00403		
0.409555	3.12122	0.28547	2.14092	0.409898	3.11835	0.873407	6.62109			0.655374	4.97797		
0.410942	3.10971	0.287551	2.14156	0.411286	3.10689	0.875643	6.59148			0.656602	4.95225		
0.412334	3.0984	0.289631	2.14219	0.41268	3.09563	0.877845	6.56204			0.657824	4.92685		
0.413732	3.08729	0.291712	2.14281	0.414079	3.08456	0.880015	6.53276			0.659043	4.90177		
0.415134	3.07636	0.293792	2.14342	0.415483	3.07369	0.882153	6.50365			0.660258	4.87701		
0.416542	3.06563	0.295872	2.14402	0.416892	3.063	0.884261	6.47471			0.661469	4.85256		
0.417955	3.05508	0.297953	2.14462	0.418306	3.0525	0.886339	6.44596			0.662677	4.82842		
0.419374	3.04471	0.300033	2.1452	0.419725	3.04217	0.888388	6.41737			0.663882	4.80458		
0.420797	3.03452	0.302113	2.14578	0.42115	3.03202	0.890409	6.38898			0.665083	4.78104		
0.422225	3.0245	0.304193	2.14636	0.422579	3.02204	0.892403	6.36076			0.666283	4.7578		
0.423658	3.01464	0.306273	2.14692	0.424014	3.01223	0.894371	6.33273			0.66748	4.73484		
0.425096	3.00496	0.308353	2.14747	0.425453	3.00258	0.896313	6.30489			0.668674	4.71217		
0.426539	2.99543	0.310434	2.14802	0.426897	2.9931	0.89823	6.27723			0.669867	4.68979		
0.427987	2.98606	0.312514	2.14856	0.428347	2.98376	0.900123	6.24977			0.671058	4.66768		
0.42944	2.97685	0.314594	2.1491	0.429801	2.97459	0.901993	6.2225			0.672247	4.64584		
0.430898	2.96778	0.316674	2.14963	0.431259	2.96556	0.90384	6.19542			0.673435	4.62428		
0.43236	2.95887	0.318754	2.15015	0.432723	2.95668	0.905665	6.16854			0.674622	4.60298		
0.433827	2.9501	0.320834	2.15066	0.434191	2.94795	0.907469	6.14185			0.675808	4.58194		
0.435299	2.94147	0.322913	2.15117	0.435664	2.93935	0.909252	6.11535			0.676992	4.56116		
0.436775	2.93298	0.324993	2.15167	0.437141	2.9309	0.911015	6.08906			0.678176	4.54064		
0.438256	2.92462	0.327073	2.15216	0.438623	2.92258	0.912759	6.06296			0.679359	4.52036		
0.439741	2.9164	0.329153	2.15265	0.44011	2.91439	0.914484	6.03705			0.680542	4.50033		
0.441231	2.90832	0.331233	2.15313	0.441601	2.90633	0.91619	6.01134			0.681725	4.48054		
0.442726	2.90036	0.333313	2.15361	0.443097	2.8984	0.917879	5.98583			0.682907	4.461		
0.444225	2.89252	0.335392	2.15408	0.444597	2.8906	0.919551	5.96052			0.684089	4.44169		
0.445728	2.88481	0.337472	2.15454	0.446101	2.88292	0.921206	5.9354			0.685271	4.42261		
0.447236	2.87722	0.339552	2.155	0.44761	2.87535	0.922845	5.91048			0.686453	4.40376		
0.448748	2.86974	0.341631	2.15546	0.449123	2.86791	0.924468	5.88576			0.687636	4.38513		
0.450264	2.86238	0.343711	2.1559	0.45064	2.86058	0.926076	5.86123			0.688819	4.36673		
0.451785	2.85514	0.345791	2.15635	0.452162	2.85336	0.92767	5.83689			0.690002	4.34855		
0.45331	2.84801	0.34787	2.15678	0.453688	2.84626	0.929249	5.81276			0.691186	4.33058		
