Sym0		Asym0		Sym1		Sym2		Sym3		Sym4		Asym1		Asym2	
473  Points		492  Points		473  Points		211  Points		130  Points		120  Points		385  Points		143  Points	
Freq (MHz)	Vgr (m/ms)	Freq (MHz)	Vgr (m/ms)	Freq (MHz)	Vgr (m/ms)	Freq (MHz)	Vgr (m/ms)	Freq (MHz)	Vgr (m/ms)	Freq (MHz)	Vgr (m/ms)	Freq (MHz)	Vgr (m/ms)	Freq (MHz)	Vgr (m/ms)
0.00298367	8.17212	0.00029208	0.476194	0.00752949	8.17088	0.279521	0.144367	0.382117	0.0729809	0.559051	0.133477	0.139785	0.404956	0.419275	0.118411
0.0105976	8.17084	0.000735748	0.579501	0.0151423	8.16905	0.279656	0.222693	0.382185	0.114553	0.559175	0.182404	0.140162	0.632834	0.419385	0.180568
0.0182091	8.16743	0.00137192	0.780512	0.0227516	8.16452	0.279936	0.378864	0.38233	0.198033	0.559391	0.280115	0.140964	1.08385	0.419611	0.304711
0.0258167	8.16221	0.00219015	0.969031	0.0303559	8.15816	0.280362	0.533735	0.382554	0.282303	0.559697	0.377612	0.142182	1.52314	0.419953	0.428484
0.0334185	8.15508	0.0031776	1.14304	0.0379535	8.14993	0.280931	0.686591	0.382856	0.367641	0.560095	0.4749	0.143803	1.94658	0.420409	0.551813
0.0410128	8.14601	0.00432008	1.30144	0.0455424	8.13968	0.281641	0.836957	0.383239	0.45438	0.560582	0.571846	0.145809	2.35095	0.420981	0.674545
0.0485977	8.13498	0.0056027	1.44378	0.0531208	8.12738	0.28249	0.984393	0.383703	0.542897	0.56116	0.66847	0.148183	2.734	0.421666	0.796522
0.0561714	8.12186	0.00701041	1.57018	0.0606869	8.11297	0.283475	1.12839	0.38425	0.633505	0.561828	0.764673	0.150904	3.09418	0.422465	0.917649
0.0637319	8.10652	0.00852855	1.68118	0.0682385	8.09631	0.284593	1.26842	0.384883	0.726465	0.562585	0.860327	0.153949	3.43077	0.423376	1.03774
0.071277	8.08889	0.0101431	1.77778	0.0757735	8.07719	0.285839	1.40414	0.385604	0.822078	0.563431	0.955467	0.157297	3.74373	0.424399	1.15669
0.0788046	8.06879	0.0118412	1.8612	0.0832894	8.0555	0.287209	1.53523	0.386415	0.920651	0.564365	1.05002	0.160925	4.03348	0.425532	1.27449
0.0863123	8.04601	0.0136112	1.93261	0.090784	8.0311	0.2887	1.66141	0.38732	1.02251	0.565388	1.14391	0.164813	4.30081	0.426774	1.39092
0.0937975	8.02039	0.0154425	1.99332	0.0982545	8.00368	0.290305	1.78237	0.38832	1.12786	0.566497	1.23706	0.168939	4.54684	0.428124	1.50585
0.101257	7.99177	0.0173256	2.04464	0.105698	7.97308	0.292021	1.89802	0.389421	1.23698	0.567693	1.32946	0.173285	4.77272	0.42958	1.61927
0.108689	7.95979	0.0192524	2.08782	0.113111	7.93899	0.293842	2.00832	0.390625	1.35005	0.568974	1.42111	0.177833	4.97979	0.431141	1.73103
0.11609	7.92419	0.021216	2.12386	0.120491	7.90112	0.295763	2.1132	0.391937	1.46719	0.570341	1.51189	0.182564	5.16936	0.432805	1.84104
0.123455	7.8847	0.02321	2.15375	0.127834	7.85908	0.29778	2.21289	0.393359	1.58861	0.571791	1.60176	0.187465	5.34269	0.434571	1.94929
0.130782	7.84087	0.0252293	2.17859	0.135136	7.81242	0.299887	2.30767	0.394897	1.71434	0.573325	1.69068	0.19252	5.50111	0.436438	2.05563
0.138066	7.79225	0.0270061	2.19665	0.142392	7.76079	0.30208	2.39783	0.396554	1.84436	0.574942	1.77865	0.197716	5.6457	0.438402	2.15998
0.145302	7.73844	0.0285312	2.20969	0.149597	7.70366	0.304355	2.4839	0.398334	1.97865	0.57664	1.86567	0.20304	5.77756	0.440462	2.26233
0.152485	7.67895	0.0297988	2.21905	0.156747	7.64053	0.306708	2.56662	0.400241	2.11714	0.578418	1.95159	0.208482	5.89778	0.442617	2.3626
0.159611	7.61307	0.0308045	2.22572	0.162927	7.58026	0.309137	2.64671	0.402279	2.25952	0.580276	2.03644	0.21403	6.0072	0.444865	2.46075
0.166672	7.54019	0.0315459	2.23	0.168155	7.52461	0.31164	2.72517	0.404451	2.40554	0.582213	2.12021	0.219675	6.10672	0.447203	2.55677
0.173661	7.4597	0.0320211	2.23257	0.172448	7.47531	0.314216	2.80313	0.406761	2.5549	0.584227	2.20288	0.225409	6.19708	0.449629	2.65059
0.180572	7.37071	0.0327051	2.23618	0.175821	7.43415	0.316864	2.88185	0.409212	2.70708	0.586318	2.28441	0.231223	6.279	0.452142	2.74215
0.187396	7.27249	0.0334498	2.23975	0.17829	7.40253	0.319586	2.96268	0.411806	2.86165	0.588484	2.36473	0.237109	6.3531	0.454739	2.83151
0.194123	7.16415	0.0344645	2.24412	0.179864	7.38167	0.322384	3.04708	0.414544	3.01807	0.590724	2.4439	0.243061	6.41987	0.457418	2.91861
0.200745	7.04483	0.0357503	2.24897	0.182119	7.35076	0.325263	3.13661	0.417429	3.17573	0.593038	2.52191	0.249072	6.47995	0.460177	3.00345
0.207251	6.91376	0.0373088	2.25396	0.184559	7.31596	0.328229	3.23285	0.420462	3.33394	0.595424	2.59868	0.255136	6.53375	0.463015	3.08604
0.213628	6.77007	0.0391409	2.25869	0.187859	7.26662	0.331287	3.33721	0.423642	3.49215	0.59788	2.67422	0.261247	6.58157	0.465928	3.16634
0.219866	6.61313	0.0412476	2.26301	0.192	7.20064	0.334447	3.45109	0.426969	3.64979	0.600407	2.74853	0.2674	6.6239	0.468915	3.24447
0.225951	6.44259	0.0433577	2.26619	0.196955	7.11542	0.337718	3.57565	0.430443	3.80613	0.603002	2.82164	0.27359	6.66103	0.471974	3.32039
0.231871	6.25816	0.0454704	2.26848	0.20269	7.00739	0.34111	3.71176	0.434062	3.96061	0.605664	2.89353	0.279812	6.69317	0.475102	3.39406
0.237612	6.06004	0.0475848	2.27006	0.209159	6.87242	0.344635	3.85982	0.437823	4.11284	0.608394	2.96414	0.286062	6.72061	0.478298	3.46561
0.243163	5.84888	0.0497004	2.27103	0.215496	6.72488	0.348303	4.01972	0.441725	4.26223	0.611188	3.0335	0.292335	6.74364	0.48156	3.5351
0.248511	5.62577	0.0518166	2.27152	0.22169	6.56391	0.352125	4.19091	0.445765	4.40838	0.614046	3.10169	0.298628	6.76237	0.484885	3.60253
0.253646	5.39241	0.0539331	2.27158	0.227727	6.38924	0.356112	4.37208	0.44994	4.55104	0.616967	3.16863	0.304936	6.77698	0.488273	3.66795
0.258559	5.1509	0.0560495	2.27136	0.233595	6.20072	0.360272	4.56143	0.454246	4.68988	0.619951	3.23433	0.311256	6.7876	0.49172	3.73147
0.263244	4.90393	0.0581655	2.27091	0.239282	5.99865	0.364612	4.75666	0.458679	4.82466	0.622994	3.29879	0.317584	6.79434	0.495226	3.79311
0.267697	4.65441	0.0602811	2.27025	0.244773	5.78379	0.369135	4.95508	0.463236	4.95529	0.626098	3.36209	0.323917	6.79733	0.498788	3.85295
0.271917	4.40535	0.0623959	2.26945	0.250059	5.55746	0.373845	5.1538	0.467913	5.08171	0.629259	3.42422	0.33025	6.79659	0.502405	3.91113
0.275906	4.15983	0.0645099	2.26853	0.255129	5.32143	0.378739	5.34981	0.472705	5.2038	0.632478	3.48513	0.336581	6.79225	0.506076	3.96771
0.279669	3.92076	0.0666231	2.26756	0.259975	5.07798	0.383814	5.54043	0.477609	5.32158	0.635753	3.54492	0.342907	6.78429	0.509799	4.0228
0.283212	3.69053	0.0687353	2.26653	0.264591	4.82996	0.389063	5.72325	0.482621	5.43511	0.639084	3.60356	0.349223	6.77277	0.513572	4.07651
0.286546	3.47112	0.0708465	2.26542	0.268975	4.58022	0.394478	5.89625	0.487737	5.54447	0.642468	3.66106	0.355527	6.75772	0.517395	4.12892
0.28968	3.26411	0.0729566	2.26432	0.273126	4.3319	0.40005	6.05792	0.492953	5.64974	0.645906	3.71749	0.361815	6.73911	0.521266	4.1802
0.292628	3.0704	0.0750658	2.26326	0.277047	4.08807	0.405767	6.20729	0.498265	5.75106	0.649395	3.77284	0.368085	6.71692	0.525184	4.23047
0.295402	2.89041	0.077174	2.26218	0.280744	3.85134	0.411617	6.34388	0.503669	5.84855	0.652936	3.82715	0.374332	6.69121	0.529149	4.27987
0.298014	2.72429	0.0792811	2.26109	0.284224	3.62414	0.417588	6.46744	0.509163	5.94229	0.656527	3.88047	0.379755	6.66596	0.533159	4.32851
0.300478	2.57179	0.0813873	2.26003	0.287497	3.40833	0.423668	6.57816	0.514742	6.03251	0.660167	3.93277	0.38436	6.6423	0.537215	4.37651
0.302806	2.43239	0.0834924	2.25899	0.290575	3.20514	0.429845	6.6765	0.520404	6.11928	0.663855	3.98412	0.388156	6.6212	0.541315	4.42415
0.30501	2.30542	0.0855966	2.25799	0.293469	3.01547	0.436109	6.76301	0.526145	6.2028	0.667591	4.0346	0.391149	6.60342	0.545459	4.47146
0.307102	2.19006	0.0876999	2.25702	0.296194	2.83963	0.442448	6.83841	0.531962	6.2832	0.671373	4.08414	0.393344	6.58988	0.549647	4.51856
0.309091	2.08553	0.0898023	2.25605	0.298761	2.67759	0.448851	6.90337	0.537853	6.36057	0.675201	4.1329	0.394746	6.58092	0.553878	4.56573
0.310988	1.99094	0.0919038	2.25517	0.301183	2.52907	0.455311	6.95865	0.543814	6.43511	0.679074	4.18083	0.396759	6.56773	0.558154	4.61304
0.312801	1.90549	0.0940046	2.25432	0.303473	2.3934	0.461818	7.00505	0.549844	6.50685	0.682992	4.228	0.398942	6.55292	0.562474	4.66064
0.314539	1.8284	0.0961045	2.25346	0.305643	2.26998	0.468364	7.04321	0.555939	6.57598	0.686953	4.2745	0.401902	6.53177	0.566839	4.70869
0.316208	1.75882	0.0982037	2.25263	0.307703	2.15795	0.474942	7.07375	0.562097	6.64261	0.690957	4.32033	0.405633	6.50387	0.571248	4.75724
0.317816	1.69611	0.100302	2.25188	0.309664	2.05641	0.481545	7.0974	0.568317	6.70674	0.695003	4.36556	0.410122	6.46824	0.575704	4.80651
0.319369	1.63963	0.1024	2.25114	0.311535	1.96467	0.488168	7.11468	0.574595	6.76857	0.699091	4.41025	0.415357	6.42381	0.580205	4.8565
0.320871	1.58877	0.104497	2.25041	0.313325	1.88177	0.494803	7.12609	0.580929	6.82813	0.703221	4.45443	0.421317	6.36917	0.584753	4.90734
0.322329	1.54302	0.106593	2.24975	0.315042	1.80692	0.501446	7.13213	0.587318	6.88545	0.707392	4.49819	0.427225	6.31076	0.589349	4.95906
0.323747	1.50182	0.108689	2.24909	0.316692	1.73951	0.508093	7.13317	0.59376	6.94061	0.711603	4.54162	0.433076	6.24849	0.593994	5.01166
0.325128	1.46485	0.110784	2.24846	0.318283	1.67873	0.514738	7.12967	0.600251	6.99365	0.715855	4.58475	0.438868	6.18227	0.598688	5.06524
0.326476	1.43162	0.112879	2.24789	0.31982	1.62396	0.520525	7.12325	0.606791	7.04466	0.720146	4.62766	0.444596	6.11221	0.603432	5.11966
0.327795	1.40177	0.114973	2.24732	0.321309	1.57467	0.525453	7.11539	0.613378	7.09357	0.724478	4.67041	0.450258	6.03829	0.608228	5.17488
0.329088	1.37504	0.117066	2.24674	0.322754	1.53033	0.529523	7.10724	0.62001	7.14041	0.728849	4.71313	0.455848	5.9606	0.613075	5.23084
0.330358	1.3511	0.119159	2.24623	0.324161	1.49043	0.532737	7.09984	0.626684	7.18525	0.73326	4.75588	0.461365	5.87921	0.617975	5.28746
0.331606	1.32974	0.121252	2.24575	0.325532	1.45459	0.535099	7.09397	0.633398	7.22806	0.737711	4.79874	0.466803	5.79424	0.622928	5.34453
0.332836	1.31066	0.123344	2.24529	0.326871	1.42242	0.536609	7.08989	0.640152	7.26876	0.742202	4.84185	0.472161	5.7059	0.627934	5.40189
0.334048	1.29368	0.125436	2.24481	0.328182	1.39352	0.538779	7.08362	0.646943	7.30741	0.746733	4.88521	0.477436	5.61427	0.632993	5.45941
0.335246	1.27861	0.127527	2.24435	0.329468	1.36764	0.541135	7.0765	0.653769	7.34397	0.751305	4.92901	0.482623	5.5196	0.638107	5.51675
0.336431	1.26531	0.129618	2.24397	0.330731	1.34452	0.544335	7.06611	0.660628	7.37836	0.755918	4.97339	0.487721	5.42214	0.643273	5.57378
0.337604	1.25366	0.131708	2.24356	0.331973	1.32385	0.548375	7.05188	0.667518	7.41058	0.760572	5.01837	0.492727	5.3221	0.648493	5.63026
0.338767	1.2434	0.133799	2.24317	0.333197	1.30538	0.55325	7.03326	0.674436	7.44052	0.765269	5.06415	0.497638	5.21986	0.653765	5.68589
0.339921	1.23445	0.135888	2.24283	0.334405	1.289	0.558951	7.00936	0.681382	7.46812	0.770009	5.11082	0.502453	5.11567	0.659088	5.74045
0.341067	1.2268	0.137978	2.24248	0.335599	1.27452	0.565468	6.97942	0.688352	7.49334	0.774793	5.15853	0.50717	5.00989	0.664461	5.79376
0.342207	1.22021	0.140067	2.24212	0.33678	1.26171	0.571956	6.94695	0.695345	7.51611	0.779621	5.20744	0.511789	4.90291	0.669884	5.84553
0.343341	1.21466	0.142156	2.24179	0.33795	1.25047	0.578413	6.91204	0.702358	7.53631	0.784496	5.25766	0.516306	4.79497	0.675354	5.89553
0.34447	1.21007	0.144244	2.24148	0.33911	1.2406	0.584836	6.87481	0.709388	7.55385	0.789418	5.30938	0.520723	4.68654	0.68087	5.94359
0.345596	1.20631	0.146333	2.24122	0.340262	1.23204	0.591223	6.83532	0.716434	7.56858	0.79439	5.36272	0.525039	4.57794	0.686429	5.98953
0.346718	1.20333	0.148421	2.24094	0.341406	1.22472	0.597573	6.79367	0.723491	7.58045	0.799411	5.41793	0.529254	4.46948	0.69203	6.03324
0.347838	1.20112	0.150508	2.24062	0.342544	1.21846	0.603882	6.74993	0.730559	7.58932	0.804485	5.47509	0.533368	4.3616	0.697671	6.07458
0.348956	1.19961	0.152596	2.24035	0.343677	1.21321	0.61015	6.70421	0.737633	7.59499	0.809613	5.5344	0.537381	4.25456	0.702618	6.10854
0.350073	1.19865	0.154683	2.24014	0.344805	1.20886	0.616375	6.65656	0.744711	7.59738	0.814798	5.59605	0.541296	4.1486	0.706855	6.13594
0.35119	1.19828	0.15677	2.23989	0.345929	1.20533	0.622554	6.60707	0.75179	7.59637	0.820041	5.66017	0.545112	4.04409	0.710373	6.15749
0.352306	1.19847	0.158857	2.23962	0.347051	1.20261	0.628687	6.55581	0.758866	7.59187	0.825345	5.72696	0.548831	3.94127	0.713163	6.17387
0.353423	1.19916	0.160943	2.23941	0.34817	1.20063	0.63477	6.50282	0.765937	7.58361	0.830713	5.79653	0.552456	3.8403	0.71522	6.18542
0.354541	1.20023	0.16303	2.23919	0.349288	1.19928	0.640804	6.44813	0.772998	7.57154	0.836146	5.869	0.555987	3.74141	0.716538	6.19254
0.355659	1.20173	0.165116	2.23901	0.350405	1.19849	0.646786	6.39174	0.780046	7.55562	0.841649	5.94452	0.559428	3.64476	0.718435	6.20269
0.35678	1.20361	0.167202	2.23881	0.351521	1.19828	0.652714	6.33381	0.787077	7.5357	0.847223	6.02312	0.562779	3.55055	0.720501	6.21338
0.357902	1.20585	0.169287	2.23856	0.352638	1.19861	0.658588	6.27442	0.794088	7.51177	0.852872	6.10474	0.566044	3.45876	0.723316	6.22717
0.358882	1.20803	0.171373	2.2384	0.353755	1.1994	0.664406	6.21348	0.801074	7.48382	0.858599	6.18938	0.569224	3.36958	0.726885	6.24372
0.359719	1.21009	0.173459	2.23821	0.354873	1.20064	0.670166	6.15111	0.808033	7.45201	0.864406	6.27693	0.572323	3.28306	0.731213	6.26227
0.360412	1.21197	0.175544	2.23805	0.355992	1.20224	0.675868	6.08745	0.81496	7.41653	0.870295	6.36713	0.575342	3.19923	0.736306	6.28211
0.360961	1.21349	0.177629	2.23789	0.357113	1.20422	0.681509	6.02244	0.820968	7.38272	0.87627	6.4598	0.578284	3.11809	0.742169	6.30229
0.361365	1.21469	0.179714	2.2377	0.358236	1.2066	0.68709	5.9562	0.826068	7.35181	0.882332	6.55446	0.581152	3.03965	0.748049	6.31971
0.361624	1.21536	0.181799	2.23757	0.359361	1.20925	0.692608	5.88888	0.830268	7.32511	0.888484	6.65062	0.583948	2.96396	0.753945	6.33439
0.361996	1.21641	0.183883	2.23739	0.360489	1.21219	0.698063	5.8204	0.833578	7.30319	0.894725	6.74787	0.586675	2.89096	0.759853	6.34627
0.362401	1.21775	0.185968	2.23723	0.36162	1.21538	0.703454	5.75089	0.836005	7.28664	0.901057	6.84546	0.589335	2.82058	0.76577	6.35543
0.362952	1.21949	0.188052	2.23712	0.362754	1.21885	0.708779	5.68046	0.837556	7.27588	0.907481	6.9428	0.591931	2.7528	0.771695	6.36196
0.363651	1.2217	0.190136	2.23699	0.363891	1.22255	0.714039	5.60921	0.839781	7.26023	0.913995	7.03926	0.594464	2.68764	0.777625	6.36584
0.364497	1.22455	0.19222	2.23685	0.365032	1.22646	0.719231	5.53723	0.842194	7.243	0.920598	7.13412	0.596939	2.62499	0.783557	6.36712
0.365493	1.22809	0.194304	2.2367	0.366177	1.23054	0.724357	5.46454	0.845466	7.21907	0.927288	7.22677	0.599356	2.56473	0.78949	6.36593
0.366639	1.23224	0.196388	2.23656	0.367325	1.23477	0.729414	5.39132	0.849589	7.18829	0.934064	7.31658	0.601718	2.50688	0.79542	6.3623
0.367789	1.23655	0.198472	2.23645	0.368478	1.23923	0.734403	5.31757	0.854551	7.15051	0.940922	7.40319	0.604027	2.45137	0.801345	6.35616
0.368943	1.24105	0.200556	2.23636	0.369634	1.24381	0.739323	5.24349	0.860339	7.10576	0.947859	7.48623	0.606286	2.39806	0.807264	6.34771
0.370102	1.24568	0.202639	2.23624	0.370795	1.24851	0.744174	5.16917	0.866935	7.05427	0.953966	7.55538	0.608496	2.34693	0.813173	6.337
0.371264	1.25045	0.204723	2.23611	0.371961	1.25336	0.748955	5.09462	0.873484	7.00311	0.959215	7.61189	0.610659	2.29794	0.819072	6.32399
0.372432	1.25536	0.206806	2.236	0.373131	1.2583	0.753667	5.02003	0.879985	6.95289	0.963585	7.65685	0.612778	2.25099	0.824957	6.30877
0.373604	1.26034	0.208889	2.23588	0.374305	1.26341	0.758309	4.94545	0.88644	6.90408	0.967057	7.69117	0.614853	2.20594	0.830828	6.29146
0.37478	1.26544	0.210972	2.23578	0.375485	1.26857	0.762882	4.871	0.89285	6.85716	0.969621	7.71588	0.616888	2.1628	0.836681	6.27203
0.375962	1.27065	0.213055	2.23569	0.376669	1.27378	0.767386	4.79674	0.899217	6.81242	0.971266	7.73133	0.618884	2.12153	0.842515	6.25057
0.377148	1.27594	0.215138	2.23561	0.377859	1.2791	0.77182	4.72281	0.905544	6.77005	0.973636	7.75309	0.620841	2.08196	0.848328	6.22712
0.378339	1.28125	0.217221	2.23554	0.379053	1.28447	0.776186	4.64926	0.911832	6.73023	0.976219	7.77622	0.622763	2.04409	0.854118	6.20178
0.379535	1.28669	0.219304	2.23539	0.380252	1.28994	0.780484	4.5762	0.918085	6.693	0.979745	7.8066	0.62465	2.00783	0.859884	6.17457
0.380737	1.2922	0.221387	2.23532	0.381456	1.29545	0.784713	4.50366	0.924304	6.65827	0.984224	7.84379	0.626504	1.97315	0.865624	6.14551
0.381943	1.29766	0.223469	2.23524	0.382666	1.30103	0.788876	4.43177	0.930492	6.62603	0.989668	7.88662	0.628327	1.93998	0.871336	6.11468
0.383155	1.30325	0.225552	2.23513	0.383881	1.30664	0.792972	4.36055	0.936651	6.59618	0.996091	7.93391	0.630119	1.90821	0.877018	6.08221
0.384372	1.3089	0.227634	2.23508	0.385101	1.31227	0.797001	4.29008	0.942783	6.56841	1.00351	7.96024	0.631883	1.87781	0.882669	6.04806
0.385594	1.31458	0.229717	2.23501	0.386326	1.31793	0.800966	4.22042	0.94889	6.54258			0.633619	1.84878	0.888288	6.01227
0.386821	1.32027	0.231799	2.23491	0.387557	1.32366	0.804865	4.15161	0.954975	6.51853			0.635328	1.821	0.893873	5.97504
0.388054	1.32594	0.233881	2.23482	0.388793	1.32942	0.808702	4.08376	0.961037	6.49596			0.637012	1.7944	0.899422	5.93632
0.389292	1.33171	0.235963	2.23477	0.390034	1.33512	0.812475	4.01681	0.967079	6.47464			0.638671	1.76899	0.904934	5.89613
0.390536	1.33748	0.238045	2.23471	0.39128	1.3409	0.816187	3.95085	0.973102	6.45442			0.640308	1.74474	0.910409	5.85464
0.391784	1.34323	0.240127	2.23461	0.392532	1.34668	0.819837	3.88594	0.979106	6.43505			0.641923	1.72152	0.915844	5.81189
0.393038	1.34899	0.242209	2.23456	0.39379	1.35246	0.823428	3.82206	0.985093	6.41632			0.643516	1.69933	0.921238	5.76788
0.394298	1.3548	0.244291	2.2345	0.395053	1.35828	0.826959	3.75921	0.991062	6.39809			0.645089	1.67816	0.926592	5.72277
0.395563	1.3606	0.246373	2.23439	0.396321	1.36409	0.830432	3.69747	0.997015	6.38011			0.646643	1.65795	0.931902	5.67659
0.396833	1.36639	0.248455	2.23434	0.397594	1.36988	0.833849	3.63689	1.00295	6.37117			0.648179	1.63861	0.937169	5.62937
0.398109	1.37222	0.250536	2.23432	0.398873	1.37564	0.837209	3.57738					0.649696	1.62012	0.942392	5.58122
0.39939	1.37799	0.252618	2.23427	0.400158	1.38144	0.840515	3.51899					0.651197	1.60248	0.947569	5.53225
0.400677	1.38377	0.2547	2.23417	0.401448	1.38724	0.843767	3.46174					0.652682	1.58565	0.952701	5.48242
0.401969	1.38959	0.256781	2.23412	0.402743	1.39299	0.846966	3.40562					0.654152	1.56957	0.957785	5.43191
0.403266	1.39535	0.258863	2.23406	0.404043	1.39876	0.850113	3.35064					0.655607	1.55425	0.962822	5.38076
0.404569	1.40105	0.260944	2.23399	0.405349	1.40451	0.853209	3.29678					0.657048	1.53967	0.967812	5.32904
0.405877	1.4068	0.263026	2.23396	0.40666	1.41027	0.856256	3.24407					0.658476	1.52571	0.972752	5.27681
0.40719	1.41256	0.265107	2.2339	0.407977	1.41597	0.859254	3.19245					0.659891	1.5124	0.977644	5.22411
0.408509	1.41827	0.267188	2.23384	0.409299	1.42164	0.862205	3.14195					0.661294	1.49973	0.982487	5.17106
0.409833	1.42394	0.269269	2.23377	0.410626	1.42733	0.865109	3.09261					0.662686	1.48765	0.98728	5.11773
0.411162	1.42963	0.271351	2.23374	0.411959	1.433	0.867967	3.04432					0.664066	1.47616	0.992023	5.06419
0.412497	1.43526	0.273432	2.23372	0.413296	1.43862	0.870782	2.99714					0.665437	1.46521	0.996717	5.01046
0.413837	1.44089	0.275513	2.23364	0.414639	1.44421	0.873552	2.95102					0.666797	1.45475	1.00136	4.98357
0.415182	1.44649	0.277594	2.2336	0.415987	1.44982	0.87628	2.90596					0.668147	1.44484		
0.416532	1.45204	0.279675	2.23358	0.417341	1.45538	0.878967	2.86193					0.669489	1.43545		
0.417888	1.4576	0.281756	2.23349	0.418699	1.4609	0.881613	2.81893					0.670822	1.42647		
0.419248	1.46312	0.283837	2.23345	0.420063	1.46641	0.88422	2.777					0.672147	1.41792		
0.420614	1.46859	0.285918	2.23343	0.421432	1.47187	0.886788	2.73603					0.673464	1.40983		
0.421985	1.47404	0.287999	2.23338	0.422806	1.47728	0.889318	2.69603					0.674774	1.40216		
0.423361	1.47951	0.290079	2.23332	0.424185	1.48269	0.891812	2.65703					0.676077	1.39489		
0.424742	1.48492	0.29216	2.23329	0.425569	1.48811	0.894269	2.61899					0.677373	1.38802		
0.426128	1.49026	0.294241	2.23328	0.426958	1.49349	0.896692	2.58185					0.678663	1.38148		
