Sym0		Asym0		Sym1		Sym2		Asym1		Asym2	
477  Points		492  Points		478  Points		257  Points		405  Points		144  Points	
Freq (MHz)	Vph (m/ms)	Freq (MHz)	Vph (m/ms)	Freq (MHz)	Vph (m/ms)	Freq (MHz)	Vph (m/ms)	Freq (MHz)	Vph (m/ms)	Freq (MHz)	Vph (m/ms)
0.00671335	8.37534	0.000482466	0.241264	0.00330205	8.37554	0.279518	767.834	0.139822	273.435	0.419271	1180.27
0.0145152	8.37454	0.00102815	0.350732	0.0111048	8.37499	0.279633	215.811	0.140293	97.22	0.419377	325.874
0.0223138	8.37306	0.00176576	0.45708	0.018905	8.37379	0.279876	125.65	0.141208	59.4624	0.419602	189.127
0.0301074	8.37096	0.00268278	0.559515	0.026701	8.37196	0.280245	88.7099	0.142556	43.1145	0.419946	133.303
0.0378942	8.36822	0.00376496	0.657459	0.034491	8.36951	0.280738	68.6265	0.144322	34.0531	0.420409	102.991
0.0456722	8.36481	0.00499674	0.750462	0.0422731	8.36639	0.281352	56.0183	0.146487	28.3351	0.42099	83.9677
0.0534394	8.36071	0.00636248	0.838281	0.0500452	8.36259	0.282083	47.3754	0.149032	24.4254	0.421688	70.9268
0.0611938	8.3559	0.00784639	0.920764	0.0578056	8.3581	0.282926	41.0877	0.151933	21.6022	0.422503	61.4363
0.0689332	8.35036	0.0094336	0.997915	0.0655518	8.35287	0.283875	36.3123	0.155167	19.4813	0.423434	54.2253
0.076655	8.34402	0.0111103	1.06984	0.0732815	8.34689	0.284925	32.5655	0.15871	17.8394	0.424479	48.5646
0.0843567	8.33687	0.0128636	1.13669	0.0809924	8.3401	0.28607	29.5497	0.162539	16.5379	0.425637	44.0063
0.0920353	8.32883	0.0146822	1.1987	0.0886815	8.33246	0.287303	27.0716	0.166632	15.4862	0.426907	40.2595
0.0996879	8.31988	0.016556	1.25613	0.0963458	8.32391	0.288617	25.0007	0.170966	14.6228	0.428286	37.1275
0.107311	8.30992	0.018476	1.30926	0.103982	8.31439	0.290007	23.2451	0.175522	13.9045	0.429775	34.4723
0.1149	8.29888	0.0204347	1.35838	0.111587	8.30384	0.291467	21.7386	0.18028	13.2998	0.43137	32.1943
0.122452	8.28668	0.0224256	1.40378	0.119156	8.29217	0.29299	20.4324	0.185224	12.7857	0.43307	30.2198
0.129962	8.27323	0.0244427	1.44573	0.126684	8.27928	0.294572	19.2895	0.190337	12.3447	0.434873	28.4932
0.137423	8.25841	0.0262183	1.47969	0.134167	8.26507	0.296211	18.2814	0.195604	11.9634	0.436778	26.9715
0.144831	8.24209	0.027743	1.50688	0.141599	8.24942	0.297903	17.3861	0.201011	11.6313	0.43878	25.6211
0.152177	8.22413	0.0290102	1.5282	0.148974	8.2322	0.299648	16.5861	0.206545	11.3402	0.44088	24.4154
0.159456	8.20437	0.0300158	1.54436	0.156283	8.21325	0.301447	15.8673	0.212196	11.0835	0.443074	23.333
0.166657	8.18263	0.0307571	1.55586	0.163519	8.19239	0.303303	15.2187	0.217951	10.8558	0.44536	22.3565
0.173771	8.1587	0.0312323	1.56306	0.170672	8.16944	0.30522	14.6309	0.223801	10.6528	0.447735	21.4715
0.180787	8.13235	0.0319163	1.57319	0.177732	8.14418	0.307207	14.0966	0.229738	10.471	0.450198	20.6662
0.187691	8.10334	0.032661	1.58392	0.184687	8.11637	0.309272	13.6095	0.235752	10.3074	0.452746	19.9308
0.194471	8.07138	0.0336757	1.59806	0.191524	8.08573	0.311428	13.1646	0.241836	10.1596	0.455376	19.2567
0.201111	8.03619	0.0349616	1.61521	0.198227	8.052	0.313687	12.7577	0.247982	10.0254	0.458086	18.6371
0.207593	7.99746	0.0365202	1.63494	0.204779	8.01485	0.316066	12.3851	0.254184	9.90311	0.460873	18.0657
0.213898	7.95486	0.0383525	1.65675	0.211165	7.97398	0.318583	12.044	0.260436	9.79125	0.463735	17.5374
0.220008	7.90807	0.0404593	1.68014	0.217362	7.92906	0.321257	11.7319	0.26673	9.68854	0.46667	17.0477
0.225902	7.85682	0.0425696	1.70192	0.223354	7.87979	0.32411	11.4466	0.273063	9.59388	0.469674	16.5927
0.231561	7.80083	0.0446822	1.72224	0.229117	7.8259	0.327162	11.1863	0.279428	9.50631	0.472746	16.169
0.236965	7.73994	0.0467965	1.7412	0.234635	7.76718	0.330434	10.9494	0.28582	9.42503	0.475884	15.7737
0.242097	7.67405	0.0489119	1.75893	0.239887	7.70347	0.333945	10.7343	0.292234	9.3493	0.479084	15.404
0.246945	7.60317	0.0510278	1.77553	0.244861	7.63476	0.33771	10.5397	0.298666	9.27851	0.482344	15.0578
0.251499	7.52747	0.0531438	1.7911	0.249545	7.56114	0.341743	10.3642	0.305111	9.21209	0.485663	14.7329
0.255757	7.44722	0.0552597	1.80571	0.253385	7.49316	0.346051	10.2065	0.311564	9.14956	0.489038	14.4275
0.259719	7.36285	0.0573752	1.81944	0.25648	7.43257	0.350634	10.0651	0.318022	9.09049	0.492467	14.14
0.263394	7.27489	0.0594899	1.83237	0.258917	7.38077	0.35549	9.93865	0.32448	9.03447	0.495949	13.869
0.266794	7.18392	0.0616039	1.84455	0.260766	7.33881	0.360609	9.82581	0.330933	8.98117	0.499481	13.6131
0.269934	7.09059	0.0637172	1.85604	0.262083	7.30744	0.365976	9.72518	0.337378	8.93027	0.503063	13.3711
0.272834	6.99555	0.0658293	1.8669	0.262907	7.28714	0.371576	9.63543	0.34381	8.88149	0.506691	13.1421
0.275513	6.89943	0.0679405	1.87718	0.264066	7.25769	0.377389	9.5553	0.350225	8.83458	0.510366	12.9251
0.277993	6.8028	0.0700507	1.8869	0.265292	7.22532	0.383394	9.48363	0.356619	8.78929	0.514087	12.7192
0.280293	6.70619	0.0721598	1.89613	0.266906	7.18076	0.389571	9.41935	0.362986	8.7454	0.517852	12.5237
0.282433	6.61004	0.0742679	1.90489	0.268859	7.12362	0.395901	9.3615	0.369323	8.70274	0.52166	12.3378
0.28443	6.51474	0.0763749	1.91321	0.271097	7.05356	0.402364	9.30924	0.375626	8.6611	0.525512	12.1609
0.286303	6.42061	0.0784808	1.92113	0.273559	6.97037	0.408943	9.2618	0.381889	8.62032	0.529407	11.9925
0.288065	6.3279	0.0805857	1.92867	0.276183	6.87406	0.415622	9.21855	0.388108	8.58025	0.533346	11.832
0.289729	6.23683	0.0826897	1.93585	0.278614	6.77739	0.422386	9.17889	0.394277	8.54072	0.537328	11.6789
0.291309	6.14753	0.0847927	1.94271	0.28087	6.68085	0.429222	9.14235	0.400393	8.50161	0.541355	11.5329
0.292813	6.06013	0.0868948	1.94927	0.282971	6.58489	0.436119	9.10849	0.406449	8.46279	0.545427	11.3935
0.294252	5.9747	0.0889959	1.95553	0.284934	6.48987	0.443065	9.07693	0.412441	8.42414	0.549546	11.2604
0.295634	5.89131	0.0910963	1.96152	0.286776	6.3961	0.45005	9.04735	0.418364	8.38553	0.553714	11.1333
0.296966	5.80997	0.0931957	1.96726	0.288511	6.3038	0.457067	9.01948	0.424211	8.34686	0.557931	11.0118
0.298253	5.73071	0.0952944	1.97276	0.290152	6.21318	0.464107	8.99306	0.429979	8.30804	0.562201	10.8957
0.299503	5.65351	0.0973923	1.97804	0.291711	6.12437	0.471163	8.96788	0.435661	8.26896	0.566524	10.7847
0.300719	5.57836	0.0994895	1.98311	0.293197	6.03748	0.478228	8.94376	0.441252	8.22956	0.570905	10.6787
0.301906	5.50523	0.101586	1.98798	0.294621	5.95259	0.485297	8.92052	0.446747	8.18974	0.575344	10.5774
0.303068	5.43409	0.103682	1.99266	0.295989	5.86973	0.492363	8.89802	0.452142	8.14944	0.579845	10.4807
0.304207	5.3649	0.105777	1.99717	0.297308	5.78894	0.499422	8.87613	0.457431	8.1086	0.58441	10.3882
0.305328	5.29763	0.107871	2.00151	0.298585	5.71022	0.506468	8.85473	0.46261	8.06718	0.589041	10.3
0.306433	5.23221	0.109965	2.00569	0.299826	5.63356	0.513496	8.83372	0.467675	8.02511	0.593742	10.2157
0.307524	5.16861	0.112059	2.00972	0.301034	5.55894	0.520503	8.813	0.472622	7.98239	0.598513	10.1353
0.308603	5.10677	0.114152	2.0136	0.302214	5.48634	0.527484	8.79249	0.477449	7.93898	0.603356	10.0587
0.309671	5.04665	0.116244	2.01736	0.303369	5.41572	0.534435	8.77212	0.482151	7.89486	0.608274	9.98555
0.310732	4.9882	0.118336	2.02098	0.304504	5.34704	0.541351	8.75181	0.486729	7.85005	0.613266	9.91584
0.311786	4.93136	0.120427	2.02449	0.30562	5.28025	0.54823	8.73151	0.490614	7.81044	0.618334	9.84942
0.312834	4.87609	0.122518	2.02788	0.306721	5.21532	0.555068	8.71115	0.493849	7.77626	0.623478	9.78612
0.313879	4.82234	0.124609	2.03116	0.307808	5.15219	0.561861	8.69068	0.496471	7.74772	0.628698	9.72581
0.31492	4.77005	0.126699	2.03433	0.308884	5.09081	0.568606	8.67007	0.498509	7.72498	0.633992	9.66836
0.315959	4.71919	0.128789	2.03741	0.309951	5.03113	0.5753	8.64926	0.499989	7.70817	0.639359	9.61362
0.316996	4.66971	0.130878	2.04039	0.31101	4.97311	0.581939	8.62821	0.500928	7.69737	0.644798	9.56145
0.318034	4.62156	0.132967	2.04328	0.312062	4.91668	0.58852	8.6069	0.502265	7.68178	0.650306	9.51172
0.319071	4.57469	0.135056	2.04608	0.313109	4.86182	0.595042	8.58529	0.503704	7.66477	0.655881	9.46429
0.32011	4.52908	0.137144	2.0488	0.314153	4.80845	0.601499	8.56334	0.505634	7.64152	0.66152	9.41902
0.32115	4.48468	0.139232	2.05144	0.315193	4.75655	0.607891	8.54105	0.508032	7.61193	0.667219	9.37579
0.322191	4.44144	0.14132	2.054	0.316232	4.70605	0.614214	8.51839	0.510869	7.57588	0.672975	9.33447
0.323236	4.39934	0.143407	2.05649	0.317269	4.65692	0.620467	8.49533	0.514111	7.53325	0.678785	9.29493
0.324283	4.35833	0.145495	2.05892	0.318306	4.60912	0.626646	8.47185	0.517717	7.48392	0.684645	9.25707
0.325334	4.31837	0.147582	2.06127	0.319344	4.56259	0.632749	8.44796	0.521205	7.43421	0.69055	9.22075
0.326389	4.27945	0.149668	2.06356	0.320383	4.5173	0.638774	8.42362	0.524577	7.38418	0.696496	9.18588
0.327447	4.24151	0.151755	2.06579	0.321423	4.4732	0.64472	8.39884	0.527838	7.33389	0.702481	9.15234
0.32851	4.20454	0.153841	2.06796	0.322466	4.43027	0.650584	8.3736	0.530989	7.2834	0.708499	9.12004
0.329577	4.16849	0.155927	2.07008	0.323511	4.38845	0.656365	8.34789	0.534037	7.23277	0.714546	9.08888
0.33065	4.13335	0.158013	2.07214	0.324559	4.34773	0.662061	8.32173	0.536984	7.18205	0.720619	9.05878
0.331727	4.09907	0.160098	2.07414	0.325611	4.30805	0.66767	8.29509	0.539834	7.13131	0.726714	9.02964
0.332809	4.06564	0.162183	2.0761	0.326666	4.26938	0.673192	8.26798	0.542592	7.0806	0.732827	9.00138
0.333897	4.03303	0.164269	2.07801	0.327726	4.2317	0.678624	8.24041	0.545262	7.02997	0.738954	8.97394
0.334991	4.00121	0.166354	2.07987	0.32879	4.19497	0.683967	8.21237	0.547847	6.97946	0.745091	8.94724
0.33609	3.97016	0.168438	2.08169	0.329859	4.15917	0.689218	8.18388	0.550353	6.92913	0.751235	8.9212
0.337196	3.93985	0.170523	2.08346	0.330932	4.12425	0.694378	8.15493	0.552781	6.87902	0.757382	8.89578
0.338307	3.91027	0.172607	2.08519	0.332011	4.0902	0.6988	8.12934	0.555137	6.82916	0.763529	8.8709
0.339424	3.88138	0.174692	2.08688	0.333095	4.05699	0.702514	8.10727	0.557424	6.77959	0.769672	8.84651
0.340547	3.85318	0.176776	2.08853	0.334184	4.02459	0.705546	8.08884	0.559646	6.73034	0.775808	8.82256
0.341532	3.82914	0.17886	2.09015	0.335279	3.99298	0.707919	8.07415	0.561805	6.68145	0.781934	8.799
0.342374	3.80903	0.180944	2.09172	0.33638	3.96212	0.709649	8.06329	0.563906	6.63293	0.788047	8.77578
0.343074	3.79266	0.183027	2.09327	0.337487	3.93201	0.710751	8.05631	0.565951	6.58482	0.794143	8.75285
0.343628	3.77988	0.185111	2.09478	0.3386	3.90261	0.712326	8.04624	0.567943	6.53713	0.80022	8.73018
0.344037	3.77058	0.187194	2.09625	0.339719	3.87391	0.714026	8.03525	0.569885	6.48989	0.806275	8.70773
0.344299	3.76467	0.189278	2.09769	0.340844	3.84588	0.71632	8.02022	0.571779	6.4431	0.812305	8.68545
0.344677	3.75622	0.191361	2.09911	0.341975	3.8185	0.71919	8.00108	0.573629	6.39679	0.818306	8.66332
0.345088	3.74711	0.193444	2.10049	0.343113	3.79176	0.722613	7.97774	0.575437	6.35096	0.824278	8.6413
0.345648	3.73484	0.195527	2.10184	0.344257	3.76563	0.726565	7.9501	0.577204	6.30563	0.830216	8.61937
0.346359	3.71952	0.19761	2.10317	0.345407	3.74009	0.731014	7.91806	0.578934	6.2608	0.836118	8.59748
0.347222	3.70128	0.199692	2.10447	0.346564	3.71514	0.735372	7.88569	0.580628	6.21649	0.841982	8.57562
0.348239	3.68026	0.201775	2.10574	0.347728	3.69075	0.73964	7.853	0.582288	6.17269	0.847805	8.55376
0.349411	3.65666	0.203857	2.10698	0.348898	3.66691	0.74382	7.82002	0.583917	6.12941	0.853586	8.53188
0.350591	3.63357	0.20594	2.10821	0.350075	3.6436	0.747912	7.78676	0.585515	6.08666	0.859321	8.50996
0.351777	3.61099	0.208022	2.1094	0.351258	3.6208	0.751917	7.75325	0.587084	6.04443	0.865008	8.48797
0.35297	3.58891	0.210104	2.11058	0.352448	3.59851	0.755837	7.71951	0.588627	6.00273	0.870647	8.46589
0.354169	3.56732	0.212186	2.11173	0.353644	3.5767	0.759673	7.68556	0.590144	5.96156	0.876234	8.44372
0.355375	3.54618	0.214268	2.11286	0.354847	3.55536	0.763427	7.65141	0.591637	5.92092	0.881059	8.42431
0.356588	3.52551	0.21635	2.11397	0.356057	3.53449	0.7671	7.6171	0.593108	5.8808	0.885139	8.40768
0.357807	3.50527	0.218432	2.11505	0.357273	3.51406	0.770694	7.58264	0.594557	5.84121	0.88849	8.39388
0.359033	3.48547	0.220514	2.11612	0.358496	3.49407	0.774211	7.54805	0.595985	5.80214	0.891124	8.38293
0.360265	3.46608	0.222596	2.11717	0.359725	3.4745	0.777652	7.51336	0.597395	5.76358	0.893053	8.37485
0.361504	3.4471	0.224677	2.1182	0.360961	3.45535	0.78102	7.47857	0.598787	5.72554	0.894283	8.36968
0.362749	3.42852	0.226759	2.11921	0.362204	3.43659	0.784316	7.44372	0.600162	5.68801	0.896046	8.36222
0.364001	3.41032	0.22884	2.1202	0.363453	3.41823	0.787541	7.40882	0.60152	5.65099	0.897955	8.35409
0.36526	3.39249	0.230922	2.12117	0.364709	3.40024	0.790698	7.37389	0.602864	5.61447	0.900539	8.34301
0.366525	3.37504	0.233003	2.12213	0.365971	3.38262	0.793788	7.33894	0.604193	5.57845	0.903787	8.32894
0.367796	3.35794	0.235084	2.12307	0.367239	3.36537	0.796814	7.304	0.605509	5.54292	0.907684	8.31184
0.369074	3.34118	0.237165	2.12399	0.368514	3.34846	0.799777	7.26908	0.606812	5.50787	0.912212	8.29165
0.370358	3.32476	0.239247	2.1249	0.369796	3.3319	0.802679	7.23419	0.608104	5.47331	0.917349	8.26832
0.371648	3.30868	0.241328	2.12579	0.371083	3.31567	0.805521	7.19935	0.609384	5.43922	0.922423	8.24482
0.372945	3.29291	0.243409	2.12667	0.372378	3.29976	0.808305	7.16458	0.610653	5.40559	0.927432	8.22112
0.374248	3.27745	0.24549	2.12753	0.373678	3.28417	0.811034	7.12989	0.611913	5.37244	0.932375	8.19725
0.375558	3.2623	0.24757	2.12838	0.374985	3.26889	0.813708	7.09528	0.613164	5.33974	0.937253	8.17318
0.376873	3.24745	0.249651	2.12921	0.376297	3.2539	0.81633	7.06078	0.614405	5.30749	0.942065	8.14894
0.378195	3.23288	0.251732	2.13004	0.377616	3.23921	0.818901	7.0264	0.615639	5.27568	0.94681	8.1245
0.379523	3.2186	0.253813	2.13084	0.378942	3.22481	0.821423	6.99214	0.616865	5.24432	0.951489	8.09989
0.380857	3.20459	0.255893	2.13164	0.380273	3.21068	0.823896	6.95801	0.618084	5.21338	0.9561	8.0751
0.382197	3.19085	0.257974	2.13242	0.38161	3.19682	0.826324	6.92403	0.619296	5.18288	0.960645	8.05014
0.383543	3.17737	0.260055	2.13319	0.382954	3.18323	0.828706	6.8902	0.620502	5.15279	0.965123	8.02502
0.384895	3.16415	0.262135	2.13395	0.384303	3.1699	0.831046	6.85654	0.621702	5.12312	0.969535	7.99973
0.386253	3.15118	0.264216	2.13469	0.385658	3.15682	0.833343	6.82304	0.622896	5.09385	0.973881	7.97428
0.387616	3.13845	0.266296	2.13543	0.387019	3.14398	0.835599	6.78972	0.624086	5.06499	0.978161	7.94869
0.388986	3.12595	0.268376	2.13615	0.388386	3.13139	0.837817	6.75659	0.625271	5.03652	0.982376	7.92295
0.390361	3.11369	0.270457	2.13686	0.389759	3.11903	0.839996	6.72364	0.626451	5.00845	0.986527	7.89709
0.391742	3.10166	0.272537	2.13756	0.391138	3.10689	0.842138	6.6909	0.627628	4.98075	0.990613	7.87109
0.393129	3.08985	0.274617	2.13825	0.392522	3.09498	0.844246	6.65835	0.628801	4.95344	0.994636	7.84498
0.394522	3.07825	0.276697	2.13893	0.393912	3.08329	0.846318	6.62601	0.629971	4.92649	0.998596	7.81876
0.39592	3.06686	0.278778	2.1396	0.395308	3.07181	0.848358	6.59388	0.631137	4.89991	1.0025	7.79244
0.397323	3.05568	0.280858	2.14026	0.396709	3.06054	0.850365	6.56196	0.632301	4.8737		
0.398732	3.0447	0.282938	2.14091	0.398116	3.04948	0.852341	6.53026	0.633462	4.84783		
0.400147	3.03392	0.285018	2.14155	0.399528	3.03861	0.854288	6.49878	0.634621	4.82232		
0.401567	3.02333	0.287098	2.14219	0.400945	3.02794	0.856205	6.46753	0.635778	4.79715		
0.402992	3.01293	0.289178	2.14281	0.402368	3.01745	0.858095	6.4365	0.636933	4.77231		
0.404423	3.00271	0.291258	2.14342	0.403797	3.00715	0.859957	6.40571	0.638087	4.74781		
0.405859	2.99267	0.293337	2.14403	0.40523	2.99703	0.861794	6.37514	0.639239	4.72364		
0.4073	2.9828	0.295417	2.14463	0.406669	2.98709	0.863605	6.34481	0.64039	4.69979		
0.408746	2.97311	0.297497	2.14521	0.408113	2.97732	0.865392	6.31471	0.64154	4.67625		
0.410198	2.96358	0.299577	2.14579	0.409563	2.96772	0.867155	6.28485	0.642689	4.65303		
0.411654	2.95422	0.301656	2.14637	0.411017	2.95829	0.868895	6.25523	0.643838	4.63011		
0.413116	2.94502	0.303736	2.14693	0.412476	2.94902	0.870614	6.22584	0.644986	4.6075		
0.414583	2.93597	0.305816	2.14749	0.413941	2.93991	0.872311	6.19669	0.646134	4.58518		
0.416054	2.92708	0.307895	2.14804	0.41541	2.93095	0.873988	6.16778	0.647281	4.56315		
0.417531	2.91834	0.309975	2.14858	0.416885	2.92214	0.875645	6.13911	0.648429	4.54142		
0.419012	2.90975	0.312055	2.14912	0.418364	2.91348	0.877283	6.11068	0.649576	4.51996		
0.420499	2.90129	0.314134	2.14965	0.419848	2.90497	0.878903	6.08249	0.650725	4.49878		
0.42199	2.89299	0.316214	2.15017	0.421337	2.8966	0.880505	6.05454	0.651873	4.47788		
0.423485	2.88481	0.318293	2.15068	0.422831	2.88837	0.88209	6.02682	0.653022	4.45724		
0.424986	2.87678	0.320373	2.15119	0.424329	2.88027	0.883658	5.99935	0.654171	4.43688		
0.426491	2.86887	0.322452	2.15169	0.425832	2.87231	0.885211	5.97211	0.655322	4.41677		
0.428001	2.8611	0.324531	2.15219	0.42734	2.86448	0.886747	5.94511	0.656473	4.39691		
0.429515	2.85345	0.326611	2.15268	0.428852	2.85677	0.888269	5.91835	0.657625	4.37732		
0.431034	2.84592	0.32869	2.15316	0.430369	2.8492	0.889777	5.89182	0.658778	4.35796		
0.432557	2.83852	0.330769	2.15364	0.43189	2.84174	0.891271	5.86552	0.659932	4.33886		
0.434085	2.83123	0.332849	2.15411	0.433416	2.8344	0.892751	5.83946	0.661088	4.31999		
0.435617	2.82406	0.334928	2.15457	0.434946	2.82718	0.894219	5.81363	0.662245	4.30136		
0.437153	2.81701	0.337007	2.15503	0.436481	2.82008	0.895674	5.78803	0.663403	4.28297		
0.438694	2.81007	0.339086	2.15548	0.43802	2.81309	0.897117	5.76266	0.664562	4.2648		
0.440239	2.80323	0.341166	2.15593	0.439563	2.80621	0.898549	5.73752	0.665724	4.24686		
0.441788	2.79651	0.343245	2.15638	0.44111	2.79943	0.899969	5.7126	0.666886	4.22914		
0.443341	2.78989	0.345324	2.15681	0.442662	2.79277	0.901379	5.68791	0.668051	4.21164		
0.444899	2.78337	0.347403	2.15724	0.444217	2.78621	0.902778	5.66345	0.669217	4.19436		
0.446461	2.77695	0.349482	2.15767	0.445777	2.77974	0.904168	5.6392	0.670385	4.17729		
0.448026	2.77063	0.351561	2.15809	0.447341	2.77338	0.905548	5.61518	0.671555	4.16042		
0.449596	2.76441	0.35364	2.15851	0.448909	2.76712	0.906918	5.59138	0.672727	4.14377		
0.45117	2.75829	0.355719	2.15892	0.450481	2.76096	0.90828	5.56779	0.673901	4.12731		
0.452747	2.75226	0.357798	2.15933	0.452057	2.75488	0.909633	5.54442	0.675077	4.11105		
0.454329	2.74632	0.359877	2.15973	0.453637	2.7489	0.910978	5.52126	0.676255	4.09499		
0.455915	2.74047	0.361956	2.16013	0.455221	2.74301	0.912314	5.49831	0.677435	4.07913		
0.457504	2.73471	0.364035	2.16053	0.456809	2.73721	0.913644	5.47558	0.678617	4.06345		
0.459097	2.72903	0.366114	2.16092	0.4584	2.7315	0.914965	5.45305	0.679802	4.04796		
0.460694	2.72344	0.368193	2.1613	0.459995	2.72587	0.91628	5.43073	0.680988	4.03265		
0.462294	2.71793	0.370271	2.16168	0.461594	2.72033	0.917588	5.40862	0.682177	4.01753		
0.463899	2.7125	0.37235	2.16206	0.463197	2.71487	0.918889	5.3867	0.683369	4.00258		
0.465507	2.70716	0.374429	2.16243	0.464803	2.70949	0.920184	5.36499	0.684562	3.98781		
0.467118	2.70189	0.376508	2.1628	0.466413	2.70418	0.921474	5.34348	0.685759	3.97321		
0.468733	2.6967	0.378587	2.16316	0.468027	2.69896	0.922757	5.32217	0.686957	3.95879		
0.470352	2.69159	0.380665	2.16352	0.469644	2.69381	0.924034	5.30105	0.688158	3.94453		
0.471974	2.68654	0.382744	2.16388	0.471264	2.68874	0.925307	5.28013	0.689362	3.93044		
0.4736	2.68158	0.384823	2.16423	0.472889	2.68374	0.926574	5.2594	0.690568	3.91651		
0.475229	2.67668	0.386902	2.16458	0.474516	2.67881	0.927836	5.23886	0.691776	3.90274		
0.476861	2.67185	0.38898	2.16492	0.476147	2.67396	0.929093	5.2185	0.692988	3.88913		
0.478497	2.6671	0.391059	2.16526	0.477782	2.66917	0.930346	5.19834	0.694201	3.87568		
0.480136	2.66241	0.393138	2.1656	0.479419	2.66445	0.931595	5.17835	0.695418	3.86238		
0.481779	2.65778	0.395216	2.16594	0.48106	2.6598	0.932839	5.15856	0.696637	3.84923		
0.483425	2.65323	0.397295	2.16627	0.482705	2.65521	0.93408	5.13894	0.697859	3.83623		
0.485074	2.64873	0.399374	2.16659	0.484353	2.65069	0.935316	5.1195	0.699083	3.82338		
0.486726	2.6443	0.401452	2.16692	0.486003	2.64623	0.936549	5.10024	0.70031	3.81068		
