Sym0		Asym0		Sym1		Sym2		Sym3		Asym1		Asym2		Asym3	
466  Points		492  Points		185  Points		137  Points		119  Points		347  Points		150  Points		119  Points	
Freq (MHz)	Vgr (m/ms)	Freq (MHz)	Vgr (m/ms)	Freq (MHz)	Vgr (m/ms)	Freq (MHz)	Vgr (m/ms)	Freq (MHz)	Vgr (m/ms)	Freq (MHz)	Vgr (m/ms)	Freq (MHz)	Vgr (m/ms)	Freq (MHz)	Vgr (m/ms)
0.00219129	7.6723	0.000444242	0.539338	0.279509	0.0910843	0.470625	0.0405545	0.55902	0.0678509	0.139782	0.360703	0.419276	0.110983	0.698776	0.0586487
0.00933953	7.67126	0.00094674	0.635016	0.279594	0.166419	0.470663	0.073222	0.559083	0.113105	0.140118	0.562863	0.419379	0.166174	0.698831	0.0907305
0.0164858	7.66828	0.00162752	0.821049	0.279819	0.316838	0.470762	0.138705	0.55923	0.203529	0.140831	0.963312	0.419586	0.276374	0.698945	0.154896
0.0236285	7.66357	0.00247668	0.995581	0.280184	0.466576	0.470921	0.204485	0.559462	0.293777	0.141913	1.3542	0.419894	0.386326	0.69912	0.219066
0.0307661	7.65715	0.00348268	1.15714	0.280689	0.615321	0.471143	0.270714	0.559778	0.383818	0.143355	1.73226	0.420305	0.495928	0.699354	0.283173
0.0378968	7.64907	0.00463289	1.30486	0.281331	0.762737	0.471426	0.337547	0.560177	0.473594	0.145141	2.09479	0.420818	0.605047	0.699647	0.347153
0.0450193	7.6392	0.00591414	1.43834	0.28211	0.908521	0.471772	0.405074	0.56066	0.563058	0.147258	2.43964	0.421433	0.713643	0.7	0.411027
0.0521316	7.62746	0.00731308	1.55773	0.283024	1.05243	0.472181	0.473479	0.561227	0.65219	0.149687	2.76555	0.422148	0.82163	0.700413	0.474761
0.0592322	7.61393	0.0088168	1.66358	0.284071	1.19414	0.472654	0.542906	0.561876	0.74088	0.152411	3.07173	0.422964	0.92884	0.700885	0.538362
0.0663193	7.59845	0.010413	1.75662	0.285249	1.33348	0.473192	0.613425	0.562607	0.829049	0.155411	3.35795	0.423879	1.03523	0.701416	0.60177
0.0733911	7.58097	0.0120901	1.83781	0.286556	1.47022	0.473797	0.685175	0.56342	0.916693	0.158668	3.62447	0.424893	1.14078	0.702006	0.664938
0.0804456	7.56145	0.0138375	1.90814	0.287989	1.60411	0.474469	0.758362	0.564315	1.0038	0.162165	3.8717	0.426005	1.24531	0.702655	0.727919
0.087481	7.53971	0.0156457	1.96873	0.289545	1.73506	0.47521	0.833033	0.565291	1.09026	0.165883	4.10052	0.427213	1.34876	0.703363	0.790675
0.0944951	7.5157	0.0175061	2.02063	0.291222	1.86294	0.476021	0.909279	0.566347	1.17603	0.169806	4.31184	0.428518	1.45106	0.704129	0.853124
0.101486	7.48937	0.0194109	2.06482	0.293016	1.98759	0.476904	0.987285	0.567482	1.26113	0.173918	4.50662	0.429917	1.55219	0.704953	0.915328
0.108451	7.4605	0.0213536	2.10236	0.294925	2.10893	0.477861	1.06712	0.568697	1.34551	0.178203	4.68599	0.43141	1.65204	0.705834	0.977259
0.115388	7.42899	0.0233284	2.13401	0.296946	2.22695	0.478893	1.14887	0.56999	1.42909	0.182649	4.85092	0.432996	1.75052	0.706774	1.03887
0.122294	7.39468	0.0253301	2.16054	0.299075	2.34171	0.480002	1.23261	0.57136	1.51186	0.187243	5.00252	0.434672	1.84765	0.70777	1.10012
0.129167	7.35741	0.0273544	2.18284	0.30131	2.45323	0.48119	1.31841	0.572807	1.59383	0.191971	5.14179	0.436439	1.94332	0.708823	1.16102
0.136004	7.31699	0.0291338	2.19922	0.303646	2.56151	0.482459	1.40638	0.57433	1.67494	0.196824	5.26953	0.438293	2.03748	0.709934	1.2216
0.142801	7.27322	0.0306604	2.21117	0.306083	2.66673	0.48381	1.49654	0.575928	1.75521	0.20179	5.38674	0.440235	2.13015	0.7111	1.28175
0.149556	7.22597	0.0319285	2.2199	0.308616	2.76908	0.485247	1.58891	0.5776	1.83459	0.206861	5.49443	0.442263	2.22122	0.712322	1.34147
0.156266	7.17488	0.0329346	2.22599	0.311243	2.86867	0.486771	1.68356	0.579346	1.91301	0.211359	5.58099	0.444374	2.31071	0.713599	1.40085
0.162926	7.11982	0.033676	2.23019	0.313961	2.96574	0.488384	1.7805	0.581165	1.9906	0.215246	5.64965	0.446568	2.39858	0.714932	1.45978
0.169533	7.06051	0.0341512	2.23276	0.316769	3.06064	0.490089	1.87968	0.583056	2.06726	0.218495	5.70316	0.448844	2.48473	0.71632	1.51825
0.176082	6.99661	0.0348352	2.23599	0.319664	3.15363	0.491887	1.98114	0.585017	2.14294	0.221085	5.7434	0.451198	2.56923	0.717761	1.57629
0.18257	6.92799	0.0355798	2.23934	0.322645	3.24504	0.49378	2.08482	0.587049	2.21769	0.223001	5.77188	0.453631	2.6521	0.719257	1.63385
0.188992	6.85432	0.0365943	2.24366	0.325711	3.33528	0.495772	2.19065	0.58915	2.29154	0.224232	5.78956	0.45614	2.73323	0.720806	1.69096
0.195343	6.77531	0.0378798	2.24833	0.32886	3.42465	0.497863	2.29854	0.591319	2.36453	0.226009	5.81433	0.458724	2.81267	0.722408	1.74753
0.201617	6.69068	0.0394377	2.25322	0.332092	3.51368	0.500055	2.40842	0.593556	2.43653	0.227948	5.84038	0.461381	2.89038	0.724062	1.80364
0.20781	6.60024	0.0412693	2.25799	0.335408	3.60281	0.50235	2.5202	0.595859	2.50759	0.230599	5.87433	0.46411	2.96641	0.725769	1.85922
0.213916	6.50374	0.0433753	2.26236	0.338806	3.69231	0.504751	2.63369	0.598228	2.57777	0.233973	5.91529	0.466909	3.04076	0.727527	1.91429
0.219929	6.40096	0.0454849	2.26576	0.342288	3.78268	0.507258	2.74876	0.600662	2.64702	0.238083	5.96167	0.469776	3.11336	0.729336	1.96884
0.225843	6.29187	0.0475973	2.2683	0.345855	3.87437	0.509873	2.86522	0.603161	2.71543	0.242945	6.01203	0.47271	3.18438	0.731195	2.02286
0.231653	6.1763	0.0497116	2.27008	0.349507	3.96758	0.512597	2.98286	0.605722	2.78296	0.248572	6.06496	0.47571	3.25375	0.733105	2.07633
0.237352	6.05429	0.0518273	2.2713	0.353248	4.06266	0.515431	3.10154	0.608346	2.84961	0.254246	6.11289	0.478773	3.32145	0.735064	2.12922
0.242935	5.92599	0.053944	2.27209	0.357078	4.1598	0.518376	3.22104	0.611032	2.91545	0.259963	6.15604	0.481899	3.38756	0.737073	2.1816
0.248395	5.79163	0.0560611	2.27245	0.36049	4.24611	0.521433	3.34103	0.613779	2.98048	0.265717	6.19476	0.485086	3.45211	0.73913	2.23341
0.253727	5.65145	0.0581784	2.27245	0.363454	4.32094	0.524602	3.46127	0.616586	3.0447	0.271506	6.22927	0.488332	3.51514	0.741234	2.28467
0.258925	5.50593	0.0602956	2.27219	0.365945	4.3838	0.527883	3.58162	0.619452	3.10818	0.277325	6.25983	0.491636	3.57667	0.743387	2.33533
0.263986	5.35574	0.0624124	2.27177	0.36794	4.43408	0.531276	3.70176	0.622378	3.17097	0.283171	6.28664	0.494997	3.63674	0.745586	2.38546
0.268905	5.20154	0.0645288	2.27119	0.369422	4.47122	0.534781	3.82135	0.625361	3.23299	0.289039	6.3099	0.498413	3.69537	0.747832	2.43503
0.273679	5.04411	0.0666445	2.27043	0.370377	4.49519	0.538397	3.94025	0.628402	3.29439	0.294928	6.3298	0.501882	3.75263	0.750123	2.48399
0.278304	4.88429	0.0687595	2.26961	0.371758	4.52984	0.542123	4.05816	0.6315	3.35516	0.300834	6.34646	0.505405	3.80856	0.75246	2.53241
0.28278	4.72315	0.0708737	2.26872	0.373272	4.56766	0.545959	4.17475	0.634654	3.41532	0.306754	6.36006	0.508979	3.86323	0.754842	2.58025
0.287106	4.56171	0.072987	2.26773	0.37535	4.6194	0.549902	4.28985	0.637864	3.47501	0.312686	6.37074	0.512604	3.91668	0.757268	2.62752
0.29128	4.40083	0.0750993	2.26672	0.378013	4.68518	0.553952	4.40323	0.641129	3.53417	0.318625	6.37853	0.516278	3.96894	0.759738	2.67422
0.295306	4.24154	0.0772108	2.26574	0.381283	4.76526	0.558107	4.51464	0.64445	3.59288	0.324571	6.38357	0.52	4.02006	0.762252	2.7204
0.299184	4.08481	0.0793213	2.26473	0.38519	4.85938	0.562365	4.62379	0.647824	3.65127	0.330521	6.38597	0.523769	4.07017	0.764808	2.76601
0.302918	3.93139	0.0814308	2.26368	0.389768	4.96732	0.566723	4.73053	0.651253	3.7093	0.336471	6.38578	0.527584	4.11925	0.767406	2.81102
0.30651	3.78201	0.0835394	2.26268	0.394446	5.07453	0.57118	4.83467	0.654736	3.76706	0.34242	6.38309	0.531444	4.16739	0.770046	2.85547
0.309965	3.6373	0.0856471	2.26167	0.399224	5.18025	0.575732	4.93602	0.658273	3.82472	0.348365	6.37793	0.535349	4.21466	0.772727	2.89942
0.313288	3.49779	0.0877538	2.26069	0.404099	5.28372	0.580377	5.03442	0.661863	3.88225	0.354304	6.37037	0.539298	4.2611	0.775448	2.94279
0.316483	3.36388	0.0898596	2.25975	0.40907	5.38427	0.585113	5.12963	0.665507	3.93974	0.360236	6.36048	0.543289	4.3068	0.77821	2.98565
0.319556	3.23572	0.0919646	2.25881	0.414132	5.48131	0.589936	5.22155	0.669204	3.99729	0.366156	6.34821	0.546802	4.34605	0.781012	3.02801
0.322512	3.11359	0.0940687	2.2579	0.419283	5.57425	0.594843	5.31001	0.672955	4.05506	0.372065	6.33365	0.549822	4.37913	0.783853	3.0698
0.325358	2.99749	0.0961719	2.25701	0.424519	5.66258	0.59983	5.39488	0.676761	4.1131	0.377958	6.31685	0.552336	4.40622	0.786732	3.11106
0.328098	2.88746	0.0982744	2.25616	0.429835	5.74593	0.604895	5.47606	0.68062	4.17154	0.383835	6.29776	0.554334	4.42745	0.78965	3.15184
0.330738	2.78342	0.100376	2.25533	0.435226	5.82404	0.610034	5.5534	0.684534	4.23048	0.389694	6.27645	0.55581	4.44299	0.792605	3.19215
0.333284	2.68519	0.102477	2.25455	0.440687	5.89668	0.615244	5.62677	0.688503	4.29006	0.395531	6.25291	0.556758	4.45299	0.795598	3.23191
0.335742	2.59268	0.104577	2.25379	0.446214	5.96379	0.620519	5.69601	0.692528	4.35048	0.401345	6.22719	0.558123	4.46721	0.798627	3.27121
0.338115	2.50566	0.106677	2.25305	0.4518	6.02537	0.625858	5.76112	0.696609	4.41177	0.407135	6.19931	0.559612	4.4825	0.801693	3.31004
0.340411	2.42389	0.108775	2.25235	0.457441	6.08142	0.630557	5.81443	0.700749	4.47414	0.412897	6.16919	0.561645	4.50339	0.804795	3.34838
0.342632	2.34715	0.110874	2.25163	0.463132	6.13208	0.634597	5.85724	0.704946	4.53782	0.41863	6.13688	0.56423	4.52958	0.807933	3.3863
0.344784	2.27526	0.112971	2.25098	0.468868	6.17748	0.637959	5.89073	0.709204	4.6029	0.424332	6.10245	0.567376	4.56099	0.811105	3.42377
0.346872	2.20787	0.115068	2.2504	0.474643	6.2179	0.640631	5.91589	0.713523	4.66957	0.430001	6.06593	0.571094	4.59769	0.814313	3.46078
0.348898	2.14479	0.117164	2.24978	0.480454	6.2535	0.642602	5.93377	0.717906	4.73802	0.435636	6.0272	0.575397	4.63945	0.817554	3.49736
0.350868	2.0858	0.11926	2.24921	0.486296	6.28444	0.643867	5.94492	0.722352	4.80842	0.441232	5.98638	0.579739	4.68087	0.82083	3.53353
0.352785	2.03058	0.121356	2.24867	0.492165	6.31108	0.645689	5.96035	0.726866	4.88095	0.446791	5.94352	0.58412	4.72209	0.824138	3.56926
0.354652	1.97903	0.12345	2.24811	0.498056	6.33363	0.647675	5.97654	0.731447	4.95578	0.452308	5.89854	0.588538	4.7631	0.82748	3.6046
0.356473	1.93087	0.125545	2.24761	0.503967	6.35227	0.650385	5.99758	0.7361	5.03299	0.457782	5.85159	0.592995	4.80389	0.830855	3.63955
0.35825	1.88581	0.127639	2.2471	0.509893	6.36726	0.653825	6.02245	0.740214	5.10231	0.463211	5.80263	0.59749	4.8445	0.834262	3.67407
0.359987	1.84382	0.129732	2.24663	0.515831	6.37889	0.658003	6.05008	0.743766	5.16293	0.468594	5.75174	0.602022	4.88491	0.837701	3.70825
0.361686	1.80465	0.131825	2.24621	0.521779	6.38731	0.662928	6.07893	0.746736	5.21429	0.473929	5.69894	0.606592	4.92522	0.841172	3.7421
0.36335	1.76808	0.133918	2.24578	0.527733	6.39269	0.668606	6.10737	0.749105	5.25553	0.479214	5.64431	0.6112	4.96537	0.844674	3.77553
0.36498	1.73396	0.13601	2.24538	0.533691	6.39527	0.674308	6.13068	0.750858	5.2862	0.484447	5.58799	0.615845	5.0053	0.848208	3.80856
0.366581	1.7022	0.138102	2.24496	0.53965	6.39524	0.68003	6.14874	0.751986	5.30613	0.489626	5.52991	0.620527	5.04503	0.851771	3.84128
0.368152	1.67259	0.140193	2.24457	0.545608	6.39274	0.685765	6.1615	0.753615	5.335	0.494751	5.47021	0.625246	5.08457	0.855365	3.8737
0.369697	1.645	0.142284	2.24423	0.551562	6.38794	0.691511	6.16902	0.755396	5.36674	0.499819	5.40906	0.630001	5.12389	0.858989	3.90572
0.371218	1.61936	0.144375	2.24387	0.557511	6.38096	0.697261	6.17128	0.757834	5.41046	0.50483	5.34647	0.634793	5.16285	0.862643	3.93738
0.372715	1.59546	0.146465	2.24351	0.563453	6.37194	0.70301	6.16838	0.760946	5.46648	0.509782	5.28259	0.639622	5.20148	0.866326	3.96878
0.37419	1.57322	0.148555	2.24318	0.569385	6.36094	0.708755	6.16059	0.764754	5.53563	0.514674	5.21746	0.644486	5.23977	0.86956	3.99587
0.37546	1.55514	0.150645	2.24287	0.575306	6.34812	0.71449	6.14806	0.769281	5.61838	0.519504	5.15125	0.649385	5.27755	0.872333	4.01879
0.376531	1.54062	0.152735	2.24257	0.581214	6.33362	0.720211	6.13113	0.774561	5.71518	0.524273	5.08412	0.65432	5.31479	0.874639	4.03761
0.37741	1.52913	0.154824	2.24231	0.587108	6.31743	0.725915	6.11026	0.779931	5.81379	0.528978	5.0161	0.659289	5.3515	0.876469	4.05234
0.3781	1.5205	0.156913	2.24204	0.592986	6.29967	0.731597	6.08579	0.785394	5.91381	0.533619	4.94737	0.664292	5.38755	0.877819	4.06302
0.378605	1.51437	0.159002	2.24175	0.598846	6.28043	0.737255	6.05829	0.790951	6.01469	0.538197	4.87806	0.669328	5.42278	0.878685	4.06997
0.378927	1.51049	0.16109	2.24146	0.604688	6.25978	0.742886	6.02839	0.796602	6.11607	0.542709	4.80829	0.674397	5.45728	0.879933	4.08
0.379388	1.50509	0.163178	2.24124	0.610511	6.23778	0.748488	5.99663	0.802347	6.21737	0.547156	4.73818	0.679497	5.4909	0.881292	4.09066
0.379888	1.49936	0.165267	2.24102	0.616312	6.21443	0.75406	5.96365	0.808187	6.31794	0.551538	4.66786	0.684628	5.52353	0.883147	4.10511
0.380565	1.4918	0.167354	2.24073	0.622091	6.18984	0.759601	5.93009	0.81412	6.41729	0.555855	4.59747	0.689789	5.55511	0.885501	4.12337
0.381416	1.48273	0.169442	2.24051	0.627846	6.16402	0.76511	5.8965	0.820145	6.5149	0.560105	4.52711	0.69498	5.58566	0.888363	4.1453
0.382439	1.47231	0.171529	2.24033	0.633577	6.13705	0.770588	5.86345	0.82626	6.61029	0.56429	4.45689	0.700198	5.61504	0.891739	4.17074
0.383629	1.46079	0.173617	2.24013	0.639282	6.10892	0.776036	5.8314	0.832462	6.70307	0.56841	4.38692	0.705443	5.64317	0.895638	4.19968
0.384984	1.4485	0.175704	2.23992	0.64496	6.07966	0.781454	5.80076	0.83875	6.79282	0.572465	4.31736	0.710713	5.67008	0.899565	4.22836
0.386328	1.43723	0.17779	2.23974	0.65061	6.04942	0.786845	5.77189	0.84512	6.87929	0.576455	4.24823	0.716008	5.69566	0.903517	4.25673
0.387662	1.42683	0.179877	2.23954	0.656232	6.01812	0.79221	5.74504	0.851569	6.9623	0.580381	4.17961	0.721326	5.71988	0.907496	4.28479
0.388987	1.41731	0.181964	2.23937	0.661825	5.98577	0.79755	5.72041	0.858094	7.04163	0.584243	4.11164	0.726667	5.74268	0.911502	4.31259
0.390303	1.40859	0.18405	2.23921	0.667386	5.95249	0.802869	5.69813	0.86469	7.11722	0.588043	4.04444	0.732027	5.76404	0.915533	4.34008
0.391612	1.40061	0.186136	2.23898	0.672916	5.91828	0.808168	5.67828	0.871356	7.18911	0.59178	3.978	0.737407	5.78399	0.919589	4.36726
0.392913	1.3934	0.188222	2.23883	0.678414	5.88315	0.81345	5.66084	0.878086	7.25729	0.595455	3.9124	0.742805	5.80242	0.92367	4.39418
0.394208	1.38682	0.190308	2.23872	0.683879	5.84717	0.818716	5.64575	0.884879	7.32177	0.59907	3.8477	0.748219	5.81937	0.927777	4.42083
0.395497	1.3809	0.192394	2.23855	0.68931	5.81032	0.82397	5.63301	0.89173	7.38268	0.602625	3.78393	0.753649	5.83483	0.931908	4.44715
0.396781	1.37559	0.194479	2.23836	0.694706	5.77263	0.829213	5.62257	0.898636	7.44013	0.606121	3.72118	0.759092	5.84875	0.936064	4.47324
0.398061	1.37082	0.196565	2.23823	0.700066	5.73415	0.834447	5.61417	0.905594	7.49427	0.609559	3.65944	0.764547	5.86121	0.940244	4.49906
0.399336	1.36656	0.19865	2.23813	0.705391	5.69496	0.839674	5.60777	0.9126	7.54518	0.61294	3.59884	0.770014	5.87212	0.944447	4.52457
0.400607	1.36286	0.200735	2.23796	0.710678	5.65507	0.844897	5.60325	0.919653	7.59301	0.616265	3.53927	0.775489	5.88154	0.948675	4.54981
0.401875	1.35962	0.20282	2.23781	0.715928	5.61444	0.850115	5.60044	0.926749	7.63794	0.619535	3.48078	0.780973	5.8895	0.952925	4.57481
0.403141	1.35682	0.204905	2.2377	0.72114	5.57314	0.855332	5.59922	0.933886	7.68008	0.622751	3.42345	0.786464	5.89597	0.957199	4.59955
0.404404	1.35444	0.20699	2.2376	0.726313	5.53125	0.860549	5.59942	0.94106	7.71953	0.625914	3.36728	0.79196	5.90093	0.961496	4.624
0.405664	1.3524	0.209074	2.23748	0.731447	5.48881	0.865766	5.6009	0.94827	7.75643	0.629025	3.31224	0.79746	5.90447	0.965816	4.6482
0.406924	1.3508	0.211159	2.23731	0.736541	5.4458	0.870986	5.60355	0.955513	7.79092	0.632086	3.25835	0.802962	5.90665	0.970157	4.67216
0.408181	1.34956	0.213243	2.23723	0.741595	5.40224	0.876208	5.60722	0.962788	7.82307	0.635097	3.20563	0.808466	5.9074	0.974522	4.69586
0.409438	1.34864	0.215328	2.23715	0.746608	5.35824	0.881434	5.6118	0.970091	7.85299	0.638059	3.15407	0.81397	5.90676	0.978908	4.71932
0.410695	1.34804	0.217412	2.237	0.751579	5.31383	0.886665	5.61717	0.977421	7.88069	0.640974	3.10365	0.819473	5.90475	0.983316	4.74255
0.41195	1.3477	0.219496	2.23689	0.756509	5.26902	0.891901	5.62318	0.984776	7.90626	0.643843	3.05437	0.824973	5.90144	0.987745	4.76548
0.413206	1.34768	0.22158	2.2368	0.761398	5.22388	0.897143	5.62978	0.992153	7.92981	0.646666	3.00626	0.830469	5.89681	0.992195	4.78819
0.414462	1.34789	0.223664	2.23671	0.766244	5.17838	0.902391	5.63682	0.999552	7.95133	0.649445	2.95925	0.835961	5.89095	0.996667	4.81071
0.415717	1.34836	0.225748	2.23664	0.771047	5.13264	0.907647	5.64421	1.00697	7.96158	0.65218	2.91336	0.841446	5.88384	1.00116	4.82191
0.416974	1.34911	0.227832	2.23652	0.775808	5.08669	0.912909	5.65191			0.654873	2.86856	0.846925	5.87546		
0.418231	1.35003	0.229916	2.23643	0.780525	5.0405	0.918178	5.65971			0.657525	2.82488	0.852395	5.86592		
0.41949	1.35119	0.231999	2.23635	0.7852	4.99419	0.923455	5.66763			0.660137	2.78231	0.857855	5.85525		
0.420749	1.35254	0.234083	2.23623	0.789832	4.94778	0.928739	5.67563			0.66271	2.74078	0.863305	5.8434		
0.42201	1.35405	0.236166	2.23618	0.79442	4.90128	0.934031	5.68351			0.665244	2.70027	0.868744	5.83044		
0.423272	1.35576	0.23825	2.23611	0.798965	4.85471	0.93933	5.69129			0.667741	2.66079	0.87417	5.81646		
0.424536	1.35761	0.240333	2.236	0.803466	4.80817	0.944636	5.69892			0.670202	2.62234	0.879582	5.80141		
0.425802	1.35963	0.242416	2.23592	0.807924	4.76171	0.949949	5.70628			0.672628	2.58491	0.88498	5.78535		
0.42707	1.36184	0.244499	2.23583	0.812339	4.71527	0.955269	5.71337			0.675019	2.54844	0.890362	5.76831		
0.42834	1.36416	0.246583	2.23579	0.81671	4.6689	0.960595	5.7201			0.677377	2.51291	0.895729	5.75027		
0.429612	1.36657	0.248666	2.2357	0.821039	4.62268	0.965928	5.72647			0.679702	2.47834	0.901077	5.73129		
0.430886	1.36912	0.250749	2.23562	0.825324	4.57661	0.971266	5.7324			0.681995	2.44469	0.906408	5.71144		
0.432163	1.37179	0.252831	2.23557	0.829567	4.53073	0.97661	5.73786			0.684257	2.41193	0.91172	5.69074		
0.433442	1.37459	0.254914	2.23552	0.833767	4.48508	0.981958	5.74282			0.686489	2.3801	0.917012	5.66919		
0.434724	1.3775	0.256997	2.23545	0.837924	4.43966	0.987311	5.74724			0.688692	2.34913	0.922284	5.6468		
0.436009	1.38045	0.25908	2.23538	0.84204	4.3945	0.992667	5.7511			0.690867	2.31896	0.927534	5.62364		
0.437297	1.38353	0.261162	2.23531	0.846113	4.34962	0.998027	5.75438			0.693013	2.28967	0.932763	5.59971		
0.438587	1.38669	0.263245	2.23524	0.850145	4.30502	1.00339	5.75592			0.695133	2.26118	0.937969	5.57508		
0.439881	1.38992	0.265328	2.23517	0.854135	4.26072					0.697227	2.23346	0.943152	5.54976		
0.441177	1.39325	0.26741	2.23513	0.858084	4.21677					0.699295	2.20656	0.94831	5.52374		
0.442477	1.3966	0.269493	2.23507	0.861992	4.17323					0.701338	2.1804	0.953444	5.4971		
0.44378	1.40003	0.271575	2.23501	0.86586	4.13					0.703358	2.15495	0.958553	5.46987		
0.445086	1.40355	0.273657	2.23498	0.869688	4.08714					0.705354	2.13024	0.963637	5.44204		
0.446395	1.4071	0.27574	2.23489	0.873476	4.04466					0.707327	2.10625	0.968694	5.4137		
0.447708	1.4107	0.277822	2.23485	0.877225	4.00262					0.709279	2.08297	0.973725	5.38484		
0.449024	1.41437	0.279904	2.23482	0.880935	3.96098					0.711209	2.06034	0.978728	5.35547		
0.450343	1.41804	0.281986	2.23474	0.884606	3.91972					0.713118	2.03834	0.983704	5.32563		
0.451666	1.42178	0.284068	2.2347	0.888239	3.87892					0.715007	2.01701	0.988652	5.2954		
0.452992	1.42559	0.28615	2.23467	0.891834	3.83852					0.716876	1.99631	0.993571	5.26475		
0.454322	1.42936	0.288232	2.23459	0.895391	3.79855					0.718727	1.97622	0.998462	5.23376		
0.455656	1.43319	0.290314	2.23455	0.898912	3.75904					0.720559	1.95669	1.00332	5.2182		
0.456993	1.43708	0.292396	2.23453	0.902396	3.71999					0.722373	1.93777				
0.458334	1.44096	0.294478	2.23448	0.905844	3.68134					0.72417	1.91941				
0.459678	1.44488	0.29656	2.23442	0.909256	3.6432					0.725949	1.90159				
0.461026	1.44886	0.298641	2.23435	0.912632	3.60549					0.727713	1.88429				
0.462378	1.45279	0.300723	2.23436	0.915974	3.56817					0.729461	1.86751				
0.463733	1.45676	0.302805	2.23432	0.919281	3.53139					0.731193	1.85128				
