Sym0		Asym0		Sym1		Sym2		Sym3		Asym1		Asym3		Asym4	
470  Points		492  Points		195  Points		132  Points		120  Points		371  Points		144  Points		116  Points	
Freq (MHz)	Vgr (m/ms)	Freq (MHz)	Vgr (m/ms)	Freq (MHz)	Vgr (m/ms)	Freq (MHz)	Vgr (m/ms)	Freq (MHz)	Vgr (m/ms)	Freq (MHz)	Vgr (m/ms)	Freq (MHz)	Vgr (m/ms)	Freq (MHz)	Vgr (m/ms)
0.00487408	8.022	0.00044531	0.553859	0.279509	0.0908794	0.410672	0.0489412	0.55902	0.0715384	0.139915	0.61256	0.419295	0.151113	0.698781	0.0727114
0.0123481	8.02055	0.000961338	0.653474	0.279594	0.170084	0.410718	0.0863193	0.559086	0.11925	0.140486	0.830669	0.419436	0.21136	0.698849	0.106969
0.0198195	8.01677	0.00166299	0.846704	0.279826	0.328157	0.410833	0.16132	0.559242	0.214558	0.141463	1.26124	0.419689	0.331602	0.698981	0.175463
0.0272865	8.01119	0.00253908	1.02713	0.280205	0.485295	0.411018	0.236833	0.559486	0.309666	0.142836	1.67876	0.420053	0.451456	0.699176	0.243898
0.0347475	8.00378	0.00357694	1.19317	0.28073	0.641002	0.411274	0.31308	0.559819	0.404594	0.144591	2.07976	0.42053	0.570901	0.699435	0.312212
0.0422007	7.99451	0.00476241	1.34396	0.281399	0.79487	0.411602	0.390282	0.56024	0.499309	0.146712	2.46156	0.421117	0.689746	0.699758	0.380359
0.0496444	7.98331	0.00608126	1.47922	0.282211	0.946456	0.412002	0.468658	0.560749	0.593671	0.149178	2.82242	0.421815	0.807832	0.700144	0.448392
0.0570767	7.97005	0.00751877	1.59922	0.283163	1.09538	0.412475	0.548435	0.561346	0.687618	0.151971	3.16115	0.422623	0.925133	0.700593	0.516196
0.0644957	7.95474	0.00906123	1.70467	0.284252	1.24132	0.413023	0.629838	0.562031	0.781176	0.155069	3.47737	0.423539	1.04152	0.701106	0.583761
0.0718995	7.93723	0.0106952	1.79641	0.285476	1.38386	0.413649	0.713103	0.562802	0.87425	0.158451	3.77122	0.424563	1.15682	0.701681	0.651069
0.0792858	7.91738	0.0124086	1.87574	0.286831	1.52275	0.414352	0.798481	0.56366	0.966795	0.162096	4.04325	0.425695	1.27102	0.702319	0.718083
0.0866526	7.8951	0.0141905	1.9438	0.288314	1.6577	0.415137	0.886107	0.564604	1.05872	0.165985	4.29434	0.426932	1.38394	0.703019	0.7848
0.0939975	7.87018	0.0160307	2.00177	0.28992	1.78846	0.416003	0.976178	0.565633	1.14999	0.170098	4.52552	0.428273	1.49551	0.703781	0.851146
0.101318	7.84246	0.0179206	2.05091	0.291646	1.91497	0.416956	1.06902	0.566746	1.24062	0.174418	4.73799	0.429718	1.60571	0.704605	0.917115
0.108611	7.81176	0.0198523	2.09229	0.293488	2.03705	0.417995	1.16468	0.567944	1.33046	0.178927	4.93293	0.431265	1.71434	0.70549	0.982693
0.115874	7.77784	0.0218193	2.12692	0.295442	2.15457	0.419126	1.26335	0.569226	1.41954	0.183609	5.11167	0.432913	1.82138	0.706436	1.04786
0.123104	7.74046	0.0238156	2.15583	0.297503	2.26767	0.42035	1.36518	0.57059	1.50784	0.188452	5.27533	0.434659	1.92676	0.707443	1.11257
0.130298	7.69933	0.0258365	2.17989	0.299668	2.37638	0.42167	1.47034	0.572035	1.59523	0.193439	5.42506	0.436503	2.03044	0.708509	1.1768
0.137451	7.65412	0.027614	2.19743	0.301931	2.48079	0.423089	1.57893	0.573562	1.68176	0.198561	5.56198	0.438443	2.13233	0.709636	1.24051
0.14456	7.6045	0.0291397	2.21016	0.30429	2.58121	0.424612	1.69093	0.575169	1.76737	0.203804	5.68706	0.440477	2.23234	0.710821	1.30371
0.151621	7.55009	0.0304074	2.21932	0.306741	2.6779	0.42624	1.80645	0.576855	1.852	0.209158	5.8013	0.442603	2.33047	0.712065	1.36639
0.158629	7.49048	0.0314132	2.2258	0.30928	2.77123	0.427978	1.92551	0.57862	1.93565	0.214614	5.90549	0.444819	2.42668	0.713367	1.42846
0.165579	7.42516	0.0321546	2.23019	0.311905	2.8618	0.429828	2.04804	0.580462	2.01828	0.220162	6.00041	0.447124	2.52088	0.714727	1.48997
0.172465	7.35372	0.0326299	2.23276	0.314613	2.95013	0.431794	2.17395	0.582381	2.09989	0.225795	6.08682	0.449517	2.61312	0.716144	1.5509
0.179282	7.27564	0.0333139	2.23618	0.317402	3.03686	0.433879	2.30308	0.584375	2.18043	0.231504	6.16532	0.451994	2.70334	0.717617	1.61115
0.186022	7.19032	0.0340586	2.23962	0.320272	3.12279	0.436086	2.4353	0.586444	2.25992	0.237283	6.23648	0.454554	2.79149	0.719146	1.67079
0.19268	7.09715	0.0350731	2.24394	0.323221	3.20875	0.438417	2.57038	0.588586	2.33833	0.243125	6.30086	0.457195	2.87763	0.72073	1.72979
0.199247	6.99565	0.0363589	2.24885	0.326251	3.29569	0.440875	2.70806	0.590801	2.41562	0.249024	6.35895	0.459916	2.96173	0.722369	1.7881
0.205716	6.88521	0.0379172	2.25373	0.329362	3.38455	0.443463	2.84798	0.593088	2.49181	0.254974	6.41111	0.462714	3.04371	0.724062	1.84576
0.212077	6.76533	0.0397492	2.25849	0.332558	3.47628	0.446182	2.98977	0.595444	2.56686	0.260971	6.45779	0.465588	3.12367	0.725808	1.90271
0.218322	6.63552	0.0418557	2.26286	0.33584	3.57191	0.449034	3.13309	0.597871	2.64078	0.267008	6.4993	0.468535	3.20164	0.727607	1.95896
0.224442	6.49535	0.0439658	2.26611	0.339214	3.67237	0.45202	3.27757	0.600365	2.71356	0.273081	6.53596	0.471554	3.27751	0.729459	2.01456
0.230426	6.34472	0.0460783	2.26847	0.342683	3.7785	0.455142	3.42268	0.602927	2.78521	0.279187	6.56805	0.474642	3.3514	0.731361	2.06942
0.236264	6.1835	0.0481928	2.27012	0.346254	3.89101	0.458398	3.56796	0.605555	2.85577	0.28532	6.59574	0.477799	3.42338	0.733315	2.12357
0.241948	6.01187	0.0503085	2.27117	0.349934	4.01034	0.46179	3.71305	0.608248	2.92512	0.291477	6.61941	0.481021	3.49343	0.735318	2.177
0.247467	5.83032	0.0524249	2.27173	0.353727	4.13673	0.465317	3.85747	0.611006	2.99337	0.296859	6.63685	0.484308	3.56154	0.737371	2.22973
0.252812	5.63964	0.0545416	2.2719	0.357642	4.27018	0.468978	4.00072	0.613826	3.0605	0.301457	6.64948	0.487658	3.62781	0.739473	2.28173
0.257976	5.44086	0.0566583	2.27176	0.361684	4.41031	0.472772	4.14249	0.616709	3.12651	0.305266	6.65837	0.491068	3.69232	0.741623	2.33306
0.26295	5.23536	0.0587747	2.27133	0.36586	4.55632	0.476697	4.2824	0.619652	3.19143	0.308281	6.66438	0.494538	3.75504	0.743821	2.38372
0.267731	5.02481	0.0608907	2.27074	0.370174	4.70712	0.480752	4.42006	0.622656	3.2552	0.310499	6.6683	0.498065	3.8161	0.746065	2.4337
0.272314	4.81113	0.063006	2.27001	0.374631	4.86143	0.484934	4.55511	0.625718	3.31793	0.311919	6.67058	0.501649	3.87552	0.748356	2.48299
0.276696	4.5964	0.0651206	2.26917	0.379233	5.01756	0.48924	4.68738	0.628838	3.37959	0.313962	6.67342	0.505287	3.93344	0.750692	2.5316
0.280878	4.38257	0.0672344	2.26824	0.383981	5.17374	0.493668	4.81665	0.632015	3.44015	0.316183	6.67609	0.508978	3.98987	0.753073	2.57961
0.284863	4.17171	0.0693472	2.26719	0.388874	5.32826	0.498215	4.94268	0.635248	3.49975	0.319205	6.67914	0.512722	4.04488	0.755499	2.627
0.288652	3.96575	0.071459	2.26618	0.393909	5.47932	0.502878	5.06533	0.638537	3.55829	0.323028	6.68171	0.516516	4.09864	0.757968	2.6738
0.292252	3.76624	0.07357	2.26513	0.399084	5.62529	0.507654	5.18443	0.641879	3.61584	0.327654	6.68317	0.520359	4.15116	0.760481	2.72001
0.29567	3.57457	0.0756799	2.26402	0.404392	5.7649	0.512539	5.30001	0.645274	3.67248	0.33308	6.68264	0.524251	4.20252	0.763037	2.76571
0.298913	3.39192	0.0777887	2.26299	0.409826	5.89688	0.51753	5.41202	0.648722	3.72812	0.339305	6.67915	0.52819	4.25286	0.765635	2.81089
0.30199	3.21893	0.0798967	2.26193	0.41538	6.02038	0.522623	5.52039	0.652221	3.78285	0.345526	6.67257	0.532176	4.30227	0.768274	2.85555
0.304911	3.05608	0.0820036	2.26088	0.421044	6.13509	0.527816	5.62506	0.655771	3.83673	0.351739	6.6629	0.536207	4.35086	0.770956	2.89975
0.307685	2.90365	0.0841096	2.25984	0.426065	6.2276	0.533105	5.72616	0.659371	3.88978	0.357941	6.65016	0.540283	4.39873	0.773678	2.94355
0.310322	2.76155	0.0862145	2.25885	0.430401	6.30077	0.538486	5.82369	0.663019	3.94197	0.364131	6.63434	0.544403	4.446	0.776441	2.98699
0.312831	2.62961	0.0883187	2.25791	0.434024	6.35739	0.543957	5.91769	0.666716	3.9934	0.370304	6.61548	0.548567	4.4927	0.779244	3.03006
0.315222	2.50752	0.0904219	2.25693	0.436911	6.39966	0.549513	6.00826	0.670461	4.04418	0.376458	6.59364	0.552775	4.53901	0.782087	3.07277
0.317503	2.39483	0.0925243	2.25604	0.439045	6.42929	0.555153	6.09535	0.674252	4.09418	0.38259	6.5688	0.557025	4.58504	0.784969	3.1152
0.319684	2.29102	0.0946258	2.25515	0.440416	6.44754	0.560871	6.1791	0.67809	4.14356	0.388698	6.54086	0.561319	4.63082	0.787892	3.15742
0.321772	2.19561	0.0967265	2.25431	0.442394	6.47288	0.566667	6.25964	0.681973	4.19239	0.394778	6.50989	0.565654	4.67653	0.790853	3.19939
0.323776	2.10806	0.0988265	2.25352	0.444552	6.4994	0.572536	6.33695	0.685902	4.24059	0.400829	6.47588	0.570033	4.72225	0.793853	3.24114
0.325701	2.02773	0.100926	2.25272	0.447502	6.5336	0.578475	6.41106	0.689875	4.28837	0.406846	6.43873	0.574454	4.76799	0.796892	3.28276
0.327554	1.95415	0.103024	2.25199	0.451253	6.57385	0.584482	6.48217	0.693893	4.33573	0.412826	6.39851	0.578917	4.8139	0.79997	3.32423
0.329342	1.88684	0.105122	2.25126	0.455819	6.61839	0.590554	6.55025	0.697954	4.3827	0.418768	6.35519	0.583424	4.86003	0.803087	3.36565
0.33107	1.82523	0.107219	2.25057	0.461213	6.66508	0.596688	6.61531	0.702059	4.4294	0.424669	6.30877	0.587974	4.90643	0.806242	3.40696
0.332743	1.76889	0.109316	2.24993	0.467446	6.71172	0.602881	6.67746	0.706208	4.47585	0.430524	6.25919	0.592567	4.95317	0.809435	3.44819
0.334366	1.71745	0.111412	2.24928	0.473719	6.75149	0.60913	6.73671	0.7104	4.52216	0.436332	6.2065	0.597203	5.00021	0.812667	3.48943
0.335943	1.67043	0.113507	2.2487	0.480026	6.78462	0.615434	6.79311	0.714634	4.56842	0.442089	6.15071	0.601884	5.04762	0.815937	3.5306
0.337479	1.62746	0.115602	2.24811	0.486362	6.81163	0.621788	6.84665	0.718912	4.61466	0.447793	6.09179	0.606609	5.09537	0.819246	3.57177
0.338976	1.58831	0.117696	2.24753	0.492719	6.83301	0.628192	6.89734	0.723233	4.66107	0.453441	6.02982	0.611379	5.14346	0.822593	3.61295
0.340438	1.55257	0.11979	2.24702	0.499094	6.84912	0.634641	6.94518	0.727598	4.70768	0.459029	5.96484	0.616193	5.19183	0.825978	3.65414
0.341869	1.51999	0.121883	2.24654	0.505482	6.86036	0.641133	6.99016	0.732006	4.7546	0.464555	5.89691	0.621053	5.24043	0.829402	3.6953
0.343271	1.49033	0.123976	2.24605	0.511878	6.86711	0.647666	7.03232	0.736457	4.802	0.470017	5.82606	0.625958	5.28917	0.832864	3.73645
0.344646	1.46325	0.126068	2.24558	0.518278	6.86972	0.654237	7.07157	0.740954	4.84993	0.475412	5.75248	0.63027	5.3317	0.836365	3.7776
0.345997	1.43868	0.12816	2.24513	0.524679	6.86846	0.660843	7.10783	0.745495	4.89855	0.480736	5.67618	0.633973	5.368	0.839903	3.81872
0.347327	1.41642	0.130252	2.24468	0.531076	6.86366	0.667482	7.14109	0.750081	4.94803	0.485989	5.59734	0.637053	5.39785	0.84348	3.85981
0.348637	1.39613	0.132343	2.24431	0.537468	6.85554	0.67415	7.17134	0.754715	4.9985	0.491166	5.51617	0.639501	5.42154	0.847096	3.90081
0.349928	1.37775	0.134434	2.24391	0.543851	6.84427	0.680845	7.19839	0.759396	5.05009	0.496267	5.4327	0.641308	5.4388	0.850749	3.94174
0.351204	1.36122	0.136524	2.24352	0.550222	6.83017	0.687563	7.22222	0.764125	5.10302	0.50129	5.34721	0.642468	5.4498	0.854441	3.98258
0.352465	1.34623	0.138615	2.24318	0.556578	6.81338	0.694303	7.24272	0.768905	5.15747	0.506231	5.25993	0.644138	5.46574	0.85817	4.02332
0.353713	1.33274	0.140704	2.24283	0.562918	6.794	0.701059	7.25976	0.773735	5.21356	0.511091	5.17103	0.64596	5.48295	0.861938	4.06386
0.354948	1.32063	0.142794	2.24251	0.569238	6.7723	0.70783	7.27334	0.778619	5.27154	0.515867	5.08073	0.648447	5.50625	0.865743	4.10422
0.356173	1.30981	0.144883	2.24216	0.575537	6.74834	0.71374	7.28216	0.783558	5.33162	0.520558	4.98925	0.651606	5.53554	0.869585	4.14435
0.357389	1.30017	0.146972	2.24188	0.581813	6.72222	0.718782	7.28745	0.788554	5.39398	0.525164	4.89689	0.65545	5.57062	0.873465	4.18426
0.358596	1.2916	0.14906	2.24159	0.588063	6.69408	0.722954	7.29022	0.793609	5.45886	0.529683	4.80388	0.659989	5.6112	0.877382	4.22387
0.359796	1.28405	0.151149	2.24127	0.594287	6.664	0.726253	7.29119	0.798726	5.52637	0.534115	4.71046	0.665239	5.657	0.881336	4.26316
0.360989	1.27745	0.153237	2.24103	0.600481	6.63212	0.72868	7.29148	0.803907	5.59679	0.538461	4.61687	0.67053	5.7018	0.885326	4.30213
0.362176	1.27171	0.155325	2.2408	0.606645	6.59845	0.730232	7.29132	0.809155	5.67025	0.542718	4.52335	0.675863	5.74541	0.889353	4.34067
0.363358	1.26675	0.157412	2.24054	0.612776	6.56309	0.732464	7.29055	0.814473	5.74686	0.546889	4.43012	0.681236	5.78768	0.893415	4.37886
0.364537	1.26254	0.1595	2.24026	0.618874	6.52607	0.73489	7.28936	0.819864	5.82675	0.550973	4.33743	0.686648	5.82845	0.897512	4.41663
0.365711	1.25904	0.161587	2.24001	0.624937	6.48746	0.738188	7.2867	0.825331	5.90994	0.554972	4.2455	0.692097	5.86769	0.901644	4.45393
0.366883	1.25621	0.163674	2.23982	0.630963	6.44731	0.742358	7.28188	0.830876	5.9964	0.558884	4.15445	0.697582	5.90522	0.905811	4.49076
0.367902	1.25417	0.16576	2.23961	0.636951	6.40571	0.747395	7.27388	0.836504	6.08604	0.562713	4.0645	0.703101	5.94087	0.910012	4.52705
0.368769	1.25274	0.167847	2.23939	0.642899	6.36264	0.753296	7.26133	0.842217	6.1786	0.566458	3.97584	0.708652	5.97458	0.914247	4.56286
0.369486	1.25184	0.169933	2.23921	0.648807	6.31814	0.760054	7.24286	0.847267	6.26141	0.570122	3.88859	0.714234	6.00635	0.918515	4.59817
0.370052	1.25121	0.17202	2.23901	0.654673	6.27235	0.766793	7.21996	0.851625	6.33346	0.573704	3.80289	0.719844	6.03607	0.922815	4.63289
0.370468	1.25078	0.174105	2.23884	0.660495	6.22521	0.773508	7.19262	0.855267	6.39385	0.577208	3.7188	0.725481	6.06364	0.927148	4.6671
0.370735	1.2507	0.176191	2.23864	0.666273	6.17677	0.780195	7.16093	0.858171	6.44216	0.580634	3.63647	0.731143	6.08903	0.931512	4.70073
0.371118	1.25047	0.178277	2.23844	0.672005	6.12714	0.786851	7.12509	0.860321	6.47777	0.583984	3.55598	0.736828	6.11224	0.935907	4.73378
0.371534	1.25021	0.180362	2.2383	0.67769	6.07625	0.793472	7.08535	0.861703	6.50066	0.58726	3.47731	0.742533	6.13322	0.940333	4.76634
0.3721	1.25014	0.182448	2.23815	0.683327	6.02421	0.800054	7.04211	0.863698	6.5338	0.590464	3.40063	0.748256	6.15199	0.944789	4.79828
0.372815	1.24998	0.184533	2.23801	0.688915	5.9711	0.806594	6.99588	0.865878	6.56984	0.593597	3.32592	0.753996	6.16855	0.949274	4.82964
0.37368	1.25011	0.186618	2.23782	0.694453	5.91689	0.81309	6.94717	0.868862	6.61898	0.596661	3.25319	0.759751	6.18287	0.953788	4.8605
0.374695	1.25049	0.188703	2.23766	0.699941	5.86166	0.81954	6.89667	0.872668	6.68113	0.599659	3.18248	0.765517	6.19501	0.957745	4.88692
0.37586	1.25127	0.190788	2.23754	0.705376	5.80545	0.825941	6.84505	0.877318	6.75611	0.602591	3.11379	0.771294	6.20493	0.961135	4.90918
0.377027	1.25243	0.192872	2.23741	0.710759	5.74837	0.832295	6.79298	0.882839	6.84349	0.605461	3.04712	0.777079	6.2127	0.96395	4.92735
0.378194	1.25389	0.194957	2.23727	0.716088	5.69043	0.838599	6.74124	0.889262	6.94246	0.608269	2.98239	0.782871	6.21835	0.966183	4.94151
0.379363	1.25561	0.197041	2.23713	0.721362	5.63165	0.844856	6.69047	0.895776	7.0394	0.611018	2.91971	0.788667	6.22187	0.967829	4.95197
0.380534	1.25764	0.199125	2.23702	0.726581	5.57219	0.851066	6.6412	0.902379	7.13365	0.61371	2.859	0.794465	6.22337	0.968884	4.95851
0.381707	1.25994	0.20121	2.23689	0.731745	5.51203	0.857231	6.59409	0.909069	7.22468	0.616346	2.80019	0.800263	6.22281	0.970404	4.96787
0.382882	1.2624	0.203294	2.23675	0.736853	5.45122	0.863354	6.54955	0.915841	7.31202	0.618928	2.74332	0.80606	6.22025	0.972059	4.97817
0.384059	1.26514	0.205378	2.23665	0.741903	5.38995	0.869436	6.50775	0.922694	7.39538	0.621457	2.68833	0.811854	6.21579	0.974314	4.99194
0.385239	1.26812	0.207461	2.23656	0.746896	5.32819	0.87548	6.46906	0.929622	7.47453	0.623937	2.63513	0.817643	6.20942	0.977176	5.00917
0.386422	1.27126	0.209545	2.23644	0.751831	5.26599	0.88149	6.4336	0.936622	7.54929	0.626368	2.58374	0.823425	6.20114	0.980651	5.02977
0.387608	1.27455	0.211629	2.23631	0.756709	5.20351	0.887469	6.40126	0.943689	7.61964	0.628751	2.53409	0.829198	6.19107	0.984744	5.05364
0.388797	1.27802	0.213712	2.23624	0.761528	5.14078	0.893418	6.37209	0.95082	7.68553	0.63109	2.48616	0.834961	6.17923	0.989465	5.08058
0.389989	1.28166	0.215796	2.23614	0.766288	5.0778	0.899342	6.34597	0.95801	7.74716	0.633384	2.43993	0.840712	6.16561	0.994211	5.10712
0.391185	1.28543	0.217879	2.23601	0.77099	5.01475	0.905243	6.32265	0.965256	7.80459	0.635636	2.39528	0.84645	6.15035	0.998982	5.13325
0.392385	1.28932	0.219962	2.23595	0.775632	4.95169	0.911124	6.30202	0.972553	7.85795	0.637848	2.35223	0.852173	6.13341	1.00378	5.1462
0.393588	1.29336	0.222046	2.23584	0.780216	4.8886	0.916986	6.28384	0.979899	7.90752	0.640019	2.31071	0.857879	6.11487		
0.394795	1.2975	0.224129	2.23575	0.784742	4.82559	0.922833	6.26778	0.987288	7.95344	0.642153	2.27068	0.863567	6.09477		
0.396006	1.30173	0.226212	2.23567	0.789208	4.76274	0.928666	6.25371	0.994719	7.99588	0.644251	2.2321	0.869236	6.07314		
0.39722	1.30604	0.228295	2.23556	0.793617	4.70012	0.934486	6.24133	1.00219	8.01625	0.646313	2.19487	0.874884	6.05006		
0.398439	1.31047	0.230377	2.2355	0.797967	4.63778	0.940296	6.23042			0.64834	2.15904	0.880509	6.02548		
0.399662	1.31499	0.23246	2.23544	0.802259	4.57575	0.946096	6.22075			0.650336	2.12454	0.886111	5.99957		
0.40089	1.31959	0.234543	2.23537	0.806493	4.51408	0.951887	6.21207			0.652299	2.09125	0.891689	5.97229		
0.402121	1.32424	0.236626	2.23526	0.81067	4.45285	0.957671	6.20425			0.654232	2.05926	0.89724	5.94368		
0.403357	1.32891	0.238708	2.23517	0.81479	4.39213	0.963448	6.19705			0.656136	2.02843	0.902764	5.91388		
0.404597	1.33369	0.240791	2.23512	0.818854	4.33189	0.969219	6.19029			0.658012	1.99873	0.90826	5.88283		
0.405842	1.33854	0.242873	2.23506	0.822862	4.27221	0.974983	6.18381			0.659861	1.97019	0.913726	5.85061		
0.407092	1.34338	0.244955	2.235	0.826815	4.21312	0.980742	6.17752			0.661683	1.94266	0.919162	5.81725		
0.408346	1.34829	0.247038	2.23493	0.830713	4.15464	0.986494	6.17127			0.663481	1.91619	0.924566	5.78284		
0.409604	1.35324	0.24912	2.23486	0.834557	4.09687	0.992241	6.16488			0.665254	1.89076	0.929938	5.7474		
0.410867	1.35816	0.251202	2.23478	0.838347	4.03975	0.997982	6.15835			0.667004	1.86629	0.935276	5.711		
0.412135	1.36319	0.253284	2.23471	0.842084	3.98336	1.00372	6.15503			0.668732	1.84274	0.94058	5.67369		
0.413407	1.36823	0.255366	2.23468	0.84577	3.92766					0.670438	1.82008	0.945848	5.63544		
0.414684	1.37328	0.257448	2.23462	0.849403	3.87271					0.672123	1.79832	0.951081	5.59639		
0.415966	1.37836	0.25953	2.23452	0.852986	3.81854					0.673789	1.77737	0.956276	5.55658		
0.417253	1.38343	0.261612	2.23451	0.856519	3.76516					0.675435	1.75722	0.961435	5.51606		
0.418544	1.3885	0.263694	2.23446	0.860002	3.71258					0.677063	1.73789	0.966555	5.47485		
0.41984	1.39359	0.265776	2.23437	0.863437	3.66073					0.678673	1.71932	0.971636	5.43301		
0.421141	1.39874	0.267857	2.23432	0.866823	3.60972					0.680267	1.70147	0.976679	5.39059		
0.422447	1.40388	0.269939	2.23426	0.870163	3.55957					0.681844	1.68426	0.981681	5.3477		
0.423757	1.40897	0.272021	2.23423	0.873456	3.51017					0.683405	1.66779	0.986644	5.30428		
0.425072	1.41408	0.274102	2.23418	0.876704	3.4616					0.684952	1.65201	0.991565	5.26045		
0.426392	1.4192	0.276184	2.23412	0.879907	3.41388					0.686484	1.63679	0.996446	5.21631		
0.427717	1.42432	0.278265	2.23408	0.883065	3.36694					0.688002	1.62223	1.00129	5.19412		
0.429046	1.42945	0.280347	2.23403	0.88618	3.32084					0.689507	1.6082				
0.43038	1.4345	0.282428	2.23401	0.889253	3.27557					0.690998	1.59475				
0.431719	1.43959	0.28451	2.23396	0.892284	3.23106					0.692478	1.58191				
0.433063	1.4447	0.286591	2.2339	0.895274	3.18743					0.693946	1.56955				
0.434411	1.44978	0.288672	2.23386	0.898224	3.14459					0.695403	1.5577				
0.435764	1.45481	0.290754	2.23381	0.901134	3.10248					0.696849	1.54631				
0.437122	1.45985	0.292835	2.23375	0.904005	3.06121					0.698284	1.53542				
0.438484	1.4649	0.294916	2.23372	0.906838	3.02072					0.69971	1.52503				
0.439852	1.46988	0.296997	2.2337	0.909633	2.98103					0.701126	1.51504				
0.441223	1.47486	0.299078	2.23366	0.912393	2.94211					0.702533	1.50543				
0.4426	1.47984	0.301159	2.2336	0.915116	2.90394					0.703931	1.4963				
0.443981	1.48482	0.30324	2.23357	0.917804	2.86654					0.705321	1.48757				
0.445367	1.48976	0.305321	2.23356	0.920457	2.82986					0.706703	1.47917				
0.446757	1.49465	0.307402	2.23351	0.923077	2.79394					0.708077	1.47116				
