Sym0		Asym0		Sym1		Sym2		Sym3		Sym4		Asym1		Asym2		Asym3	
449  Points		492  Points		163  Points		137  Points		123  Points		90  Points		266  Points		148  Points		118  Points	
Freq (MHz)	Vgr (m/ms)	Freq (MHz)	Vgr (m/ms)	Freq (MHz)	Vgr (m/ms)	Freq (MHz)	Vgr (m/ms)	Freq (MHz)	Vgr (m/ms)	Freq (MHz)	Vgr (m/ms)	Freq (MHz)	Vgr (m/ms)	Freq (MHz)	Vgr (m/ms)	Freq (MHz)	Vgr (m/ms)
0.00131673	7.44317	0.000355654	0.485836	0.279525	0.152339	0.549607	-0.0138232	0.559017	0.0787579	0.838551	0.0818309	0.139865	0.496523	0.419271	0.0982275	0.698778	0.0632256
0.00825149	7.44267	0.000808305	0.579873	0.279667	0.229914	0.549594	-0.0191769	0.559091	0.149497	0.838627	0.10925	0.140327	0.687707	0.419362	0.152951	0.698837	0.0954557
0.0151853	7.4411	0.00143618	0.763216	0.279954	0.384784	0.549571	-0.0268153	0.559296	0.288474	0.838754	0.164042	0.141146	1.06585	0.419556	0.262265	0.698956	0.15992
0.0221172	7.43855	0.00223048	0.936287	0.280384	0.538958	0.549544	-0.0274434	0.559628	0.421333	0.838933	0.218768	0.142313	1.4341	0.419851	0.371321	0.699135	0.224321
0.0290462	7.43513	0.00318085	1.09749	0.280958	0.692178	0.54952	-0.019984	0.560081	0.546501	0.839162	0.273507	0.143818	1.78966	0.420248	0.480083	0.699374	0.28867
0.0359717	7.43072	0.00427553	1.24581	0.281674	0.844076	0.549507	-0.00425938	0.560646	0.663461	0.839442	0.3282	0.145648	2.13018	0.420746	0.588477	0.699673	0.352916
0.0428926	7.42533	0.00550227	1.38079	0.282531	0.994432	0.549512	0.0192064	0.561317	0.772505	0.839773	0.382802	0.147788	2.45401	0.421344	0.696353	0.700032	0.417028
0.049808	7.41895	0.00684847	1.50243	0.283527	1.14302	0.549543	0.049512	0.562086	0.87443	0.840155	0.437293	0.150221	2.76015	0.422043	0.803632	0.70045	0.481092
0.056717	7.41153	0.00830189	1.61103	0.284661	1.28953	0.549604	0.0856603	0.562947	0.970248	0.840588	0.49171	0.152931	3.04804	0.422842	0.910306	0.700928	0.544986
0.0636186	7.40313	0.00985045	1.70716	0.28593	1.4338	0.549702	0.126756	0.563894	1.06096	0.841072	0.546051	0.155901	3.31753	0.423739	1.01628	0.701466	0.608687
0.0705119	7.39367	0.011483	1.79168	0.287332	1.57564	0.549841	0.172032	0.564923	1.14738	0.841606	0.600242	0.159113	3.56887	0.424736	1.12137	0.702062	0.672222
0.0773958	7.38309	0.0131891	1.86551	0.288866	1.71482	0.550023	0.220691	0.566032	1.23035	0.84219	0.654352	0.162551	3.80269	0.425829	1.22557	0.702718	0.735571
0.0842694	7.37137	0.0149592	1.9296	0.290528	1.85114	0.550252	0.272233	0.567216	1.31054	0.842825	0.708299	0.166199	4.0197	0.427019	1.32886	0.703433	0.798695
0.0911316	7.35849	0.0167847	1.9849	0.292315	1.98449	0.55053	0.326243	0.568474	1.38837	0.84351	0.762066	0.170041	4.22072	0.428305	1.43107	0.704206	0.861589
0.0979812	7.34438	0.0186578	2.03243	0.294226	2.11482	0.55086	0.382335	0.569803	1.46426	0.844245	0.815694	0.174064	4.407	0.429686	1.53223	0.705038	0.924241
0.104817	7.32904	0.0205719	2.07309	0.296256	2.24194	0.551243	0.440248	0.571202	1.53862	0.84503	0.86919	0.177705	4.55807	0.43116	1.63223	0.705929	0.986631
0.111638	7.31236	0.0225208	2.10767	0.298403	2.36574	0.55168	0.499822	0.57267	1.61169	0.845865	0.922496	0.180903	4.67887	0.432727	1.731	0.706877	1.04871
0.118443	7.2943	0.0244993	2.13698	0.300664	2.4862	0.552174	0.560889	0.574206	1.68357	0.846749	0.975568	0.183608	4.77341	0.434386	1.82849	0.707883	1.11048
0.12523	7.27482	0.0265028	2.16176	0.303036	2.60327	0.552725	0.623332	0.575807	1.75451	0.847683	1.02846	0.185785	4.84499	0.436135	1.92466	0.708946	1.17198
0.131999	7.25378	0.0285275	2.18262	0.305515	2.71699	0.553335	0.687133	0.577475	1.82462	0.848665	1.08116	0.187406	4.89596	0.437972	2.01953	0.710067	1.23315
0.138747	7.2312	0.0303063	2.19801	0.308099	2.82725	0.554006	0.752186	0.579207	1.89394	0.849697	1.13366	0.188452	4.92768	0.439898	2.11294	0.711244	1.29398
0.145473	7.2069	0.0318318	2.20936	0.310783	2.9341	0.554737	0.818424	0.581004	1.96265	0.850778	1.18594	0.189967	4.97217	0.441909	2.20493	0.712478	1.3544
0.152176	7.18088	0.0330987	2.21767	0.313566	3.03764	0.555531	0.885936	0.582865	2.03069	0.851907	1.2379	0.19163	5.01921	0.444006	2.29544	0.713768	1.41444
0.158854	7.15299	0.0341037	2.22353	0.316444	3.13787	0.556388	0.954676	0.584788	2.09815	0.853085	1.28967	0.193915	5.08093	0.446187	2.38439	0.715114	1.47412
0.165505	7.12307	0.0348443	2.22742	0.319413	3.23489	0.55731	1.02463	0.586774	2.1651	0.85431	1.34122	0.196845	5.15574	0.448449	2.47185	0.716515	1.5334
0.172127	7.09113	0.0353189	2.22983	0.322472	3.32882	0.558297	1.09582	0.588822	2.23147	0.855584	1.39246	0.200444	5.24147	0.450793	2.55778	0.717971	1.59229
0.178718	7.05699	0.036002	2.23315	0.325616	3.4197	0.559352	1.16828	0.590932	2.29735	0.856905	1.44345	0.204739	5.33569	0.453216	2.64212	0.719482	1.65072
0.185277	7.0205	0.0367457	2.23636	0.328844	3.50771	0.560474	1.24206	0.593103	2.36274	0.858273	1.49417	0.209759	5.43628	0.455716	2.72487	0.721047	1.70871
0.1918	6.98158	0.0377586	2.24037	0.332152	3.59314	0.561666	1.31712	0.595335	2.42767	0.859689	1.54455	0.214869	5.52935	0.458293	2.806	0.722666	1.76625
0.198286	6.93999	0.0390423	2.24506	0.335099	3.66549	0.562928	1.39348	0.597627	2.49207	0.861152	1.59469	0.220063	5.61521	0.460945	2.88551	0.724338	1.82338
0.204732	6.89569	0.040598	2.24986	0.337657	3.72568	0.564263	1.47121	0.599979	2.55596	0.862661	1.64452	0.225333	5.69451	0.46367	2.96343	0.726063	1.87999
0.211136	6.84849	0.0424267	2.25458	0.339804	3.7745	0.56567	1.55034	0.60239	2.61945	0.864216	1.694	0.230674	5.7677	0.466467	3.03975	0.727841	1.9361
0.217494	6.79818	0.0445296	2.259	0.341521	3.81259	0.567152	1.63082	0.60486	2.68241	0.865817	1.74324	0.23608	5.83524	0.469334	3.11445	0.729671	1.99176
0.223803	6.74466	0.0466361	2.26245	0.342794	3.84038	0.568709	1.71268	0.607388	2.7449	0.867464	1.79213	0.241547	5.89758	0.47227	3.18753	0.731553	2.04691
0.230062	6.68771	0.0487454	2.26505	0.343614	3.85798	0.570343	1.79597	0.609975	2.80688	0.869157	1.84069	0.24707	5.95504	0.475274	3.25899	0.733485	2.10156
0.236265	6.6272	0.0508568	2.26702	0.344798	3.88291	0.572055	1.8806	0.612618	2.86838	0.870894	1.88888	0.252643	6.00798	0.478343	3.32889	0.735469	2.1557
0.242411	6.56302	0.0529698	2.26844	0.346095	3.90989	0.573847	1.9666	0.615319	2.92941	0.872676	1.93678	0.258265	6.05671	0.481477	3.39719	0.737502	2.20933
0.248495	6.49494	0.0550838	2.26937	0.347873	3.94637	0.57572	2.05398	0.618077	2.98995	0.874503	1.98431	0.263929	6.10155	0.484673	3.46393	0.739585	2.2624
0.254513	6.42278	0.0571985	2.26991	0.350144	3.99185	0.577675	2.1427	0.620891	3.05003	0.876374	2.03147	0.269634	6.14272	0.487931	3.52914	0.741718	2.31492
0.260463	6.34652	0.0593135	2.2701	0.352926	4.0461	0.579713	2.23267	0.623761	3.1096	0.878289	2.07834	0.275376	6.18051	0.491249	3.59278	0.743899	2.36694
0.266339	6.26598	0.0614286	2.27005	0.356237	4.10887	0.581835	2.32385	0.626685	3.16869	0.880247	2.12482	0.281151	6.21505	0.494626	3.65493	0.746128	2.41839
0.272139	6.18116	0.0635435	2.26981	0.360098	4.18	0.584043	2.4162	0.629665	3.22733	0.882248	2.17092	0.286957	6.24656	0.49806	3.71558	0.748405	2.4693
0.277857	6.09201	0.0656581	2.26936	0.364026	4.25029	0.586337	2.50965	0.632699	3.2855	0.884292	2.21668	0.292791	6.27528	0.50155	3.77478	0.75073	2.51968
0.283491	5.99844	0.0677722	2.2688	0.368018	4.31992	0.588719	2.6041	0.635787	3.34317	0.886379	2.26205	0.29865	6.30133	0.504635	3.82528	0.753101	2.56949
0.289035	5.9006	0.0698858	2.26812	0.372075	4.38931	0.59119	2.69947	0.638929	3.40043	0.888507	2.30702	0.304533	6.32486	0.507297	3.86744	0.755518	2.6187
0.294486	5.79858	0.0719986	2.26738	0.376197	4.45854	0.593749	2.79558	0.642124	3.4573	0.890677	2.35163	0.310436	6.346	0.509521	3.90169	0.75798	2.66739
0.29984	5.69247	0.0741108	2.2666	0.380383	4.52784	0.596399	2.89237	0.645371	3.5137	0.892889	2.39587	0.316358	6.36485	0.511293	3.92844	0.760488	2.71548
0.305093	5.58258	0.0762221	2.2657	0.384634	4.59742	0.599139	2.98972	0.648671	3.56965	0.895142	2.43975	0.322296	6.38152	0.512603	3.94808	0.76304	2.76304
0.310242	5.46913	0.0783327	2.26481	0.38895	4.66741	0.60197	3.08743	0.652023	3.62525	0.897435	2.4832	0.328249	6.39619	0.513445	3.96042	0.765637	2.81002
0.315284	5.35248	0.0804424	2.26397	0.393332	4.73792	0.604892	3.18538	0.655426	3.68048	0.899769	2.5263	0.334215	6.40888	0.51466	3.97784	0.768276	2.85639
0.320216	5.23299	0.0825513	2.26307	0.397779	4.80903	0.607906	3.28342	0.658881	3.73534	0.902143	2.56899	0.340191	6.41965	0.515987	3.99682	0.770959	2.90224
0.325035	5.11111	0.0846594	2.26214	0.402293	4.88077	0.610606	3.36875	0.662387	3.78985	0.904556	2.61123	0.346177	6.42862	0.517801	4.0224	0.773684	2.94751
0.32974	4.98741	0.0867666	2.26124	0.406874	4.95307	0.612963	3.44137	0.665943	3.84408	0.907009	2.65316	0.35217	6.43586	0.520113	4.05426	0.776452	2.9922
0.334329	4.86233	0.0888729	2.26035	0.411522	5.02592	0.61495	3.50132	0.66955	3.89806	0.9095	2.69468	0.358169	6.44142	0.522932	4.09216	0.77926	3.03632
0.3388	4.73638	0.0909785	2.25946	0.416239	5.09911	0.616545	3.54866	0.673206	3.95173	0.91203	2.73575	0.364173	6.44533	0.526272	4.13571	0.782109	3.07987
0.343154	4.61009	0.0930832	2.25862	0.421024	5.17247	0.617731	3.58334	0.676913	4.00517	0.914598	2.77644	0.37018	6.44765	0.530149	4.18457	0.784999	3.1229
0.347391	4.48407	0.0951872	2.25779	0.425877	5.24585	0.618497	3.60542	0.68067	4.05844	0.917203	2.81673	0.376188	6.44845	0.53407	4.23226	0.787929	3.16529
0.35151	4.35881	0.0972903	2.25698	0.430799	5.31887	0.619605	3.63711	0.683984	4.10479	0.919846	2.85666	0.382196	6.44775	0.538035	4.27877	0.790897	3.20715
0.355513	4.23478	0.0993928	2.2562	0.435788	5.39126	0.620821	3.67152	0.686838	4.14417	0.922526	2.89616	0.388202	6.44553	0.542043	4.32418	0.793905	3.24848
0.359401	4.11248	0.101495	2.25545	0.440845	5.46276	0.622493	3.71813	0.689219	4.1767	0.925243	2.93525	0.394206	6.44189	0.546093	4.36849	0.79695	3.28923
0.363176	3.99224	0.103596	2.25471	0.445968	5.53298	0.624638	3.77679	0.691115	4.20241	0.927996	2.97394	0.400206	6.43685	0.550183	4.41178	0.800034	3.32942
0.36684	3.87445	0.105696	2.25401	0.451155	5.60163	0.627277	3.84723	0.692517	4.22125	0.930785	3.01223	0.4062	6.43038	0.554313	4.45404	0.803154	3.36909
0.370396	3.75949	0.107796	2.25329	0.456406	5.66843	0.630434	3.929	0.693417	4.23333	0.933609	3.05012	0.412188	6.42253	0.558483	4.49531	0.806312	3.40821
0.373845	3.64757	0.109895	2.25264	0.461718	5.73304	0.634138	4.0216	0.694716	4.25073	0.936468	3.08761	0.418168	6.41333	0.56269	4.53565	0.809505	3.44675
0.377192	3.53887	0.111993	2.25202	0.467088	5.79519	0.637927	4.11269	0.696133	4.26959	0.939362	3.12471	0.424139	6.40279	0.566934	4.57516	0.812734	3.4848
0.38044	3.4336	0.114091	2.25138	0.472516	5.85468	0.641801	4.2021	0.698071	4.29533	0.942291	3.16142	0.430099	6.39094	0.571215	4.61377	0.815999	3.52231
0.383591	3.33189	0.116188	2.2508	0.477998	5.91138	0.645758	4.28969	0.700539	4.32783	0.945253	3.19771	0.436048	6.37768	0.575532	4.65153	0.818872	3.55458
0.386648	3.2338	0.118285	2.25022	0.483531	5.96511	0.649795	4.37531	0.703548	4.36709	0.948249	3.23359	0.441983	6.36311	0.579883	4.68858	0.821341	3.5818
0.389616	3.13935	0.120381	2.24971	0.489113	6.01567	0.653911	4.4587	0.707112	4.4133	0.951279	3.2691	0.447905	6.34725	0.584268	4.7249	0.823398	3.60403
0.392498	3.0486	0.122477	2.2492	0.494741	6.06314	0.658103	4.53976	0.711249	4.46645	0.954341	3.30422	0.453811	6.33006	0.588687	4.76045	0.825033	3.62148
0.395297	2.9615	0.124573	2.24865	0.500411	6.10745	0.66237	4.61844	0.715435	4.51972	0.957436	3.33894	0.4597	6.31154	0.593139	4.79541	0.82624	3.63432
0.398017	2.87806	0.126667	2.24816	0.506122	6.14851	0.666709	4.69448	0.719671	4.5732	0.960563	3.37331	0.465571	6.29166	0.597623	4.82977	0.827015	3.6425
0.40066	2.79819	0.128762	2.24773	0.511868	6.18647	0.671118	4.76781	0.723956	4.62703	0.963722	3.40724	0.471424	6.27051	0.602139	4.86346	0.828132	3.65409
0.403231	2.72179	0.130856	2.24729	0.517649	6.22134	0.675593	4.83834	0.728293	4.68113	0.966912	3.44077	0.477256	6.24807	0.606685	4.89668	0.82935	3.66667
0.405732	2.64883	0.132949	2.24686	0.523461	6.25317	0.680133	4.90598	0.732679	4.73556	0.970133	3.47398	0.483066	6.22429	0.611263	4.9294	0.831013	3.68373
0.408167	2.57924	0.135043	2.24646	0.529301	6.28208	0.684735	4.9706	0.737117	4.79047	0.973385	3.50678	0.488854	6.19918	0.615871	4.96162	0.833127	3.70511
0.410538	2.51284	0.137135	2.24603	0.535167	6.30811	0.689395	5.03217	0.741606	4.84579	0.976244	3.53507	0.494618	6.17275	0.620508	4.9934	0.8357	3.73068
0.412849	2.44956	0.139228	2.24568	0.541056	6.33149	0.694112	5.09068	0.746146	4.90161	0.978699	3.55894	0.500356	6.14499	0.625175	5.02478	0.838742	3.76032
0.415102	2.38936	0.14132	2.24532	0.546965	6.35226	0.698881	5.14593	0.750739	4.95802	0.980741	3.57857	0.506068	6.11595	0.629872	5.05582	0.842261	3.79394
0.417301	2.33203	0.143412	2.24495	0.552893	6.37049	0.703701	5.19799	0.755385	5.01493	0.982364	3.59393	0.511753	6.08561	0.634596	5.08646	0.845811	3.82709
0.419448	2.27748	0.145503	2.24462	0.558836	6.38637	0.708567	5.2469	0.760084	5.07246	0.983562	3.60513	0.517408	6.05396	0.63935	5.1168	0.849392	3.85977
0.421545	2.22559	0.147594	2.24428	0.564793	6.40003	0.713478	5.29256	0.764837	5.13067	0.98433	3.61238	0.523034	6.021	0.644131	5.14683	0.853003	3.89201
0.423334	2.1824	0.149685	2.24399	0.570762	6.41151	0.718429	5.33498	0.769645	5.18944	0.985438	3.62275	0.528628	5.98676	0.64894	5.17657	0.856644	3.92373
0.424832	2.14715	0.151776	2.24371	0.57674	6.42098	0.723419	5.37421	0.774507	5.24882	0.986645	3.63385	0.534189	5.95125	0.653777	5.20605	0.860315	3.95504
0.426053	2.11894	0.153866	2.24341	0.582726	6.42854	0.728444	5.41031	0.779425	5.30886	0.988293	3.64886	0.539717	5.91453	0.658641	5.2353	0.864014	3.98593
0.427007	2.09731	0.155956	2.24312	0.588719	6.4343	0.7335	5.44337	0.7844	5.36954	0.990387	3.66782	0.54521	5.87654	0.663532	5.26431	0.867742	4.01632
0.427702	2.08161	0.158046	2.24283	0.594716	6.43831	0.738587	5.47338	0.789431	5.43078	0.992933	3.69057	0.550668	5.83729	0.668451	5.29306	0.871498	4.04634
0.428144	2.07178	0.160135	2.24261	0.600716	6.44068	0.743699	5.50043	0.794519	5.49257	0.99594	3.71696	0.556088	5.79691	0.673395	5.32161	0.875282	4.07597
0.428776	2.05813	0.162225	2.24235	0.606718	6.44158	0.748836	5.52472	0.799665	5.55481	0.999418	3.74694	0.561469	5.75536	0.678367	5.34995	0.879093	4.10514
0.429459	2.04331	0.164314	2.24212	0.612719	6.44096	0.753994	5.54632	0.80487	5.61746	1.00292	3.76184	0.566812	5.71266	0.683364	5.37807	0.882932	4.13393
0.430379	2.02356	0.166403	2.24189	0.61872	6.43897	0.759171	5.56535	0.810133	5.68047			0.572114	5.66885	0.688388	5.40594	0.886796	4.16231
0.43153	1.99948	0.168491	2.24166	0.624717	6.4357	0.764365	5.58194	0.815455	5.74372			0.577375	5.62403	0.693438	5.43356	0.890688	4.19028
0.432904	1.97125	0.17058	2.24144	0.630712	6.43114	0.769572	5.59627	0.820836	5.80717			0.582594	5.57818	0.698513	5.46097	0.894605	4.21792
0.434491	1.93959	0.172668	2.24122	0.636701	6.42541	0.774793	5.60853	0.826276	5.87061			0.58777	5.5313	0.703614	5.48803	0.898547	4.24518
0.436282	1.90503	0.174756	2.24104	0.642685	6.41856	0.780023	5.61891	0.831775	5.93393			0.592901	5.48355	0.708739	5.51486	0.902515	4.27206
0.438041	1.87215	0.176844	2.24087	0.648661	6.41059	0.785263	5.62754	0.837333	5.99712			0.597988	5.43491	0.71389	5.54142	0.906508	4.29862
0.43977	1.84106	0.178932	2.24068	0.65463	6.40159	0.79051	5.6346	0.84295	6.05992			0.603028	5.3854	0.719065	5.56759	0.910525	4.32479
0.441472	1.81163	0.181019	2.24047	0.66059	6.39163	0.795762	5.64033	0.848625	6.12226			0.608023	5.33519	0.724265	5.59342	0.914566	4.35061
0.443146	1.78374	0.183107	2.2403	0.66654	6.38072	0.80102	5.64484	0.854358	6.18405			0.61297	5.28427	0.729488	5.61886	0.918632	4.37609
0.444795	1.75738	0.185194	2.24014	0.67248	6.3689	0.806281	5.64842	0.860148	6.24508			0.617869	5.23266	0.734735	5.64389	0.922721	4.40128
0.446421	1.73244	0.187281	2.23998	0.678408	6.35621	0.811545	5.65112	0.865995	6.3053			0.62272	5.18049	0.740005	5.66845	0.926833	4.42614
0.448024	1.70884	0.189368	2.23983	0.684324	6.34261	0.816811	5.65313	0.871898	6.36452			0.627523	5.12778	0.745297	5.69255	0.930968	4.45069
0.449605	1.68656	0.191454	2.23968	0.690227	6.3282	0.822079	5.65465	0.877855	6.42273			0.632276	5.07459	0.750612	5.71614	0.935127	4.47494
0.451166	1.6655	0.193541	2.2395	0.696116	6.31301	0.827348	5.65581	0.883866	6.47978			0.636979	5.02103	0.755949	5.73918	0.939307	4.49883
0.452709	1.6456	0.195627	2.23937	0.70199	6.29706	0.832618	5.65672	0.889929	6.53559			0.641632	4.96708	0.761307	5.76165	0.94351	4.52249
0.454233	1.62685	0.197714	2.23923	0.70785	6.28037	0.837889	5.65747	0.896044	6.59008			0.646234	4.91286	0.766685	5.78347	0.947734	4.54585
0.45574	1.60913	0.1998	2.23909	0.713693	6.26291	0.84316	5.65821	0.902209	6.64314			0.650786	4.85847	0.772083	5.8047	0.95198	4.56889
0.457231	1.5924	0.201886	2.23898	0.71952	6.24473	0.848432	5.65902	0.908423	6.69487			0.655287	4.80385	0.777501	5.82525	0.956248	4.59168
0.458707	1.57667	0.203972	2.23886	0.72533	6.2259	0.853705	5.65997	0.914684	6.74508			0.659738	4.74914	0.782938	5.84504	0.960536	4.61421
0.460169	1.56189	0.206058	2.23872	0.731121	6.20634	0.858979	5.66111	0.920992	6.79374			0.664137	4.69439	0.788393	5.86416	0.964846	4.63647
0.461618	1.54794	0.208144	2.23858	0.736894	6.18612	0.864254	5.66256	0.927344	6.84092			0.668485	4.63963	0.793865	5.88255	0.969176	4.65847
0.463054	1.53481	0.210229	2.23847	0.742648	6.16528	0.86953	5.66431	0.933739	6.88656			0.672782	4.58496	0.799354	5.90013	0.973526	4.6802
0.464478	1.52246	0.212315	2.23838	0.748383	6.14377	0.874809	5.66635	0.940176	6.93061			0.677029	4.53039	0.80486	5.91694	0.977897	4.70169
0.465891	1.51091	0.2144	2.23826	0.754097	6.12166	0.880089	5.6688	0.946653	6.97315			0.681224	4.47592	0.81038	5.93289	0.982287	4.72294
0.467293	1.50004	0.216486	2.23817	0.75979	6.09892	0.885372	5.67164	0.95317	7.01419			0.685369	4.42167	0.815915	5.94804	0.986698	4.74389
0.468686	1.48984	0.218571	2.23808	0.765461	6.07558	0.890657	5.67485	0.959723	7.05369			0.689464	4.36766	0.821464	5.96236	0.991127	4.76466
0.470069	1.48031	0.220656	2.23797	0.771111	6.05167	0.895946	5.67851	0.966313	7.09163			0.693508	4.31392	0.827025	5.97581	0.995576	4.78522
0.471444	1.47141	0.222741	2.23784	0.776738	6.02713	0.901239	5.68257	0.972938	7.12811			0.697502	4.26054	0.832599	5.9884	1.00004	4.79542
0.472811	1.46311	0.224826	2.23773	0.782342	6.00207	0.906535	5.68698	0.979596	7.16316			0.701447	4.20748	0.838184	6.00012		
0.47417	1.4553	0.226911	2.23768	0.787922	5.97647	0.911836	5.69183	0.986286	7.19676			0.705342	4.15473	0.843779	6.01095		
0.475523	1.44807	0.228996	2.23758	0.793478	5.95026	0.917141	5.69703	0.993006	7.2289			0.709189	4.10246	0.849385	6.02091		
0.476869	1.44137	0.23108	2.2375	0.79901	5.92361	0.922452	5.7026	0.999756	7.2597			0.712987	4.05066	0.854999	6.02999		
0.478209	1.43513	0.233165	2.23742	0.804516	5.89641	0.927767	5.70853	1.00653	7.27477			0.716737	3.99927	0.860621	6.0382		
0.479543	1.42934	0.23525	2.2373	0.809997	5.86867	0.933089	5.71476					0.720439	3.94838	0.86625	6.04552		
0.480872	1.42399	0.237334	2.23725	0.815452	5.84052	0.938416	5.72132					0.724094	3.89799	0.871886	6.05197		
0.482196	1.41908	0.239418	2.23718	0.82088	5.81183	0.94375	5.72811					0.727702	3.84812	0.877527	6.05753		
0.483516	1.41457	0.241503	2.23708	0.826282	5.78269	0.94909	5.73517					0.731265	3.79883	0.883173	6.06226		
0.484832	1.41041	0.243587	2.23699	0.831656	5.75314	0.954437	5.74251					0.734781	3.75009	0.888824	6.06616		
0.486145	1.40665	0.245671	2.23694	0.837002	5.72314	0.95979	5.74998					0.738252	3.70191	0.894477	6.06913		
0.487453	1.40323	0.247755	2.23688	0.84232	5.69275	0.965151	5.75764					0.741679	3.65431	0.900133	6.07132		
0.488759	1.40009	0.249839	2.23678	0.84761	5.66196	0.970519	5.76546					0.745062	3.60733	0.90579	6.07266		
0.490062	1.39732	0.251923	2.23673	0.852871	5.63074	0.975894	5.7734					0.748401	3.56095	0.911449	6.07319		
0.491363	1.39487	0.254007	2.23667	0.858102	5.5992	0.981277	5.78147					0.751697	3.51517	0.917107	6.07291		
0.492662	1.39265	0.256091	2.2366	0.863304	5.56732	0.986668	5.78957					0.754951	3.47009	0.922765	6.07185		
0.493958	1.3907	0.258175	2.23657	0.868476	5.53512	0.992065	5.79772					0.758163	3.42561	0.928421	6.07		
0.495253	1.38903	0.260259	2.23648	0.873618	5.50261	0.997471	5.8059					0.761334	3.38172	0.934076	6.06736		
