Sym0		Asym0		Sym1		Sym2		Sym3		Sym4		Asym1		Asym3		Asym4	
471  Points		493  Points		501  Points		198  Points		131  Points		120  Points		376  Points		144  Points		115  Points	
Freq (MHz)	Vph (m/ms)	Freq (MHz)	Vph (m/ms)	Freq (MHz)	Vph (m/ms)	Freq (MHz)	Vph (m/ms)	Freq (MHz)	Vph (m/ms)	Freq (MHz)	Vph (m/ms)	Freq (MHz)	Vph (m/ms)	Freq (MHz)	Vph (m/ms)	Freq (MHz)	Vph (m/ms)
0.00441026	8.07292	9.45887e-005	0.105189	-1.34819e-008	8.05984	0.279561	356.367	0.401393	643.39	0.559042	797.712	0.1398	319.502	0.419269	1386.6	0.698779	1554.75
0.0119309	8.07231	0.000390461	0.213259	0.000661285	2.16017	0.279759	163.014	0.401477	258.09	0.559155	342.514	0.140207	102.396	0.419362	339.822	0.698842	505.988
0.0194488	8.07105	0.000882522	0.319452	0.0013801	2.16021	0.280105	105.785	0.401632	161.476	0.559356	218.141	0.141027	61.2908	0.41957	193.728	0.698968	302.212
0.0269625	8.06925	0.00156252	0.422952	0.00235771	2.16024	0.280597	78.3885	0.401861	117.539	0.559648	160.087	0.142253	44.0051	0.41989	135.56	0.699159	215.488
0.0344702	8.06681	0.00241953	0.523027	0.00359411	2.16026	0.281233	62.3402	0.402162	92.4372	0.560028	126.486	0.143871	34.5484	0.420323	104.321	0.699413	167.475
0.0419701	8.06377	0.00344073	0.619092	0.00508923	2.16025	0.282012	51.8123	0.402538	76.2044	0.560497	104.584	0.145866	28.6234	0.420869	84.8381	0.699731	136.989
0.0494606	8.0601	0.00461207	0.710709	0.00684314	2.16025	0.282931	44.3838	0.402989	64.8513	0.561056	89.1842	0.148219	24.5895	0.421526	71.5356	0.700113	115.92
0.0569397	8.0558	0.00591896	0.797586	0.00885585	2.16025	0.283987	38.8686	0.403517	56.4696	0.561702	77.7693	0.150909	21.6842	0.422295	61.8817	0.700558	100.492
0.0644055	8.05083	0.00734669	0.87955	0.0108685	2.16024	0.285178	34.6173	0.404123	50.0312	0.562436	68.9736	0.153917	19.5051	0.423174	54.5614	0.701066	88.7087
0.0718561	8.04519	0.00888112	0.956555	0.0128813	2.16025	0.2865	31.2441	0.40481	44.9334	0.563258	61.9915	0.157219	17.8197	0.424163	48.8238	0.701637	79.4183
0.0792891	8.03884	0.0105087	1.02863	0.0148939	2.16025	0.28795	28.5058	0.40558	40.7995	0.564167	56.3167	0.160796	16.4843	0.42526	44.209	0.70227	71.9068
0.0867023	8.03175	0.0122171	1.09591	0.0169066	2.16025	0.289522	26.2412	0.406435	37.3819	0.565162	51.6156	0.164627	15.4055	0.426465	40.4193	0.702966	65.7094
0.0940934	8.0239	0.013995	1.15857	0.0189193	2.16024	0.291214	24.3392	0.407377	34.5112	0.566243	47.659	0.168691	14.5199	0.427775	37.2539	0.703723	60.5104
0.10146	8.01525	0.0158323	1.21681	0.020932	2.16024	0.29302	22.7209	0.40841	32.0676	0.567409	44.2844	0.17297	13.7829	0.429191	34.572	0.704542	56.0875
0.108799	8.00577	0.0177199	1.27088	0.0229447	2.16025	0.294937	21.3287	0.409536	29.964	0.56866	41.3735	0.177447	13.1625	0.43071	32.2723	0.705422	52.2799
0.116107	7.99539	0.0196501	1.32104	0.0249574	2.16025	0.29696	20.1194	0.410758	28.1355	0.569994	38.8379	0.182105	12.6348	0.432331	30.2799	0.706363	48.9684
0.123382	7.98409	0.0216159	1.36754	0.0269701	2.16025	0.299085	19.0602	0.41208	26.5327	0.571411	36.6103	0.186929	12.182	0.434052	28.5382	0.707364	46.0627
0.130619	7.9718	0.0236115	1.41065	0.0289827	2.16025	0.301306	18.1255	0.413505	25.1177	0.57291	34.6387	0.191904	11.7904	0.435872	27.0037	0.708425	43.493
0.137815	7.95846	0.0256318	1.4506	0.0309954	2.16025	0.303621	17.2954	0.415036	23.8604	0.574491	32.882	0.197019	11.4492	0.43779	25.6424	0.709545	41.2048
0.144966	7.944	0.0274091	1.48305	0.0330081	2.16025	0.306026	16.5538	0.416677	22.7369	0.576152	31.3075	0.20226	11.1501	0.439803	24.4273	0.710724	39.1548
0.152067	7.92836	0.0289346	1.50907	0.0350208	2.16024	0.308516	15.8878	0.418432	21.728	0.577892	29.8889	0.207617	10.8863	0.44191	23.3367	0.711962	37.308
0.159114	7.91144	0.0302023	1.52953	0.0370335	2.16025	0.311089	15.2869	0.420304	20.818	0.579711	28.6045	0.21308	10.6523	0.444108	22.353	0.713257	35.636
0.166101	7.89317	0.0312081	1.54506	0.0390462	2.16025	0.313744	14.7424	0.422296	19.994	0.581608	27.4368	0.218639	10.4438	0.446397	21.4617	0.714608	34.1155
0.173021	7.87345	0.0319494	1.55613	0.0410589	2.16025	0.316477	14.2471	0.424411	19.2452	0.583581	26.3708	0.224285	10.257	0.448773	20.651	0.716017	32.7271
0.17987	7.85217	0.0324247	1.56306	0.0430716	2.16025	0.319288	13.795	0.426653	18.5626	0.585629	25.3943	0.230011	10.089	0.451236	19.9107	0.717481	31.4545
0.186639	7.82923	0.0331087	1.57283	0.0450842	2.16025	0.322178	13.3812	0.429025	17.9386	0.587753	24.4967	0.23581	9.93722	0.453783	19.2324	0.719	30.2841
0.193321	7.80451	0.0338534	1.58318	0.047097	2.16025	0.325147	13.0014	0.431529	17.3668	0.58995	23.6691	0.241674	9.79958	0.456413	18.609	0.720574	29.2044
0.199907	7.77788	0.034868	1.59683	0.0491097	2.16025	0.328196	12.652	0.434167	16.8415	0.592219	22.904	0.247597	9.67427	0.459122	18.0344	0.722202	28.2053
0.20639	7.74921	0.0361538	1.61343	0.0511224	2.16025	0.33133	12.33	0.436941	16.3579	0.59456	22.1948	0.253573	9.55976	0.46191	17.5034	0.723883	27.2783
0.21276	7.71837	0.0377121	1.63255	0.053135	2.16025	0.334552	12.0327	0.439853	15.9119	0.59697	21.5358	0.259597	9.45477	0.464775	17.0113	0.725616	26.4162
0.219007	7.68522	0.0395441	1.65373	0.0551477	2.16025	0.337867	11.7579	0.442903	15.4998	0.599451	20.922	0.265663	9.35816	0.467714	16.5544	0.727401	25.6124
0.22512	7.64964	0.0416508	1.67651	0.0571604	2.16025	0.341282	11.5037	0.446093	15.1185	0.601999	20.3493	0.271768	9.26899	0.470725	16.1291	0.729237	24.8615
0.231089	7.61149	0.0437608	1.69777	0.0591731	2.16025	0.344802	11.2685	0.449421	14.7651	0.604615	19.8137	0.277905	9.1864	0.473807	15.7324	0.731124	24.1585
0.236903	7.57066	0.0458735	1.71765	0.0611858	2.16025	0.348437	11.0508	0.452889	14.4371	0.607296	19.3119	0.284071	9.10967	0.476957	15.3618	0.73306	23.499
0.242551	7.52706	0.0479879	1.73625	0.0631985	2.16025	0.352193	10.8494	0.456495	14.1323	0.610043	18.841	0.290262	9.03817	0.480175	15.0148	0.735045	22.8793
0.248024	7.4806	0.0501035	1.75368	0.0652112	2.16025	0.356079	10.663	0.460237	13.8487	0.612853	18.3984	0.296474	8.97132	0.483457	14.6895	0.737078	22.296
0.253311	7.43125	0.0522199	1.77003	0.0672239	2.16025	0.360102	10.4908	0.464114	13.5845	0.615726	17.9817	0.302703	8.90865	0.486802	14.384	0.739159	21.7461
0.258405	7.37899	0.0543365	1.78539	0.0692366	2.16025	0.364268	10.3317	0.468124	13.3382	0.618661	17.5888	0.308946	8.84971	0.490208	14.0965	0.741287	21.2268
0.263298	7.32386	0.0564531	1.79984	0.0712493	2.16025	0.368585	10.185	0.472265	13.1082	0.621656	17.2179	0.315198	8.79412	0.493674	13.8258	0.743461	20.7359
0.267985	7.26594	0.0585695	1.81344	0.073262	2.16025	0.373055	10.0498	0.476534	12.8932	0.624711	16.8673	0.320653	8.74813	0.497199	13.5704	0.745681	20.271
0.272463	7.20533	0.0606853	1.82627	0.0752746	2.16025	0.377682	9.92534	0.480927	12.6922	0.627824	16.5354	0.325305	8.71057	0.500779	13.3292	0.747945	19.8303
0.276731	7.14222	0.0628004	1.83838	0.0772874	2.16025	0.382466	9.81084	0.485443	12.5039	0.630995	16.2208	0.329153	8.68057	0.504415	13.101	0.750254	19.412
0.28079	7.0768	0.0649148	1.84982	0.0793	2.16025	0.387405	9.70559	0.490077	12.3274	0.634222	15.9224	0.332195	8.65748	0.508104	12.8851	0.752607	19.0145
0.284643	7.00931	0.0670284	1.86065	0.0813127	2.16025	0.392497	9.60888	0.494826	12.1618	0.637505	15.639	0.334431	8.64083	0.511845	12.6803	0.755003	18.6364
0.288295	6.94003	0.069141	1.87091	0.0833254	2.16025	0.397737	9.52001	0.499686	12.0064	0.640842	15.3696	0.335863	8.63033	0.515636	12.4861	0.757441	18.2762
0.291754	6.86922	0.0712527	1.88064	0.0853381	2.16025	0.403118	9.43832	0.504655	11.8602	0.644233	15.1132	0.33792	8.61542	0.519478	12.3015	0.759922	17.933
0.295027	6.79719	0.0733634	1.88987	0.0873508	2.16025	0.408632	9.36317	0.509728	11.7228	0.647676	14.869	0.340155	8.59946	0.523367	12.1261	0.762445	17.6054
0.298125	6.72422	0.075473	1.89865	0.0893635	2.16025	0.41427	9.29395	0.514903	11.5934	0.651171	14.6362	0.343194	8.57815	0.527305	11.9592	0.765009	17.2926
0.301057	6.65059	0.0775817	1.907	0.0913761	2.16025	0.420023	9.23009	0.520175	11.4714	0.654717	14.414	0.347035	8.55181	0.531288	11.8002	0.767613	16.9936
0.303833	6.57657	0.0796893	1.91495	0.0933889	2.16025	0.425882	9.17106	0.525541	11.3564	0.658312	14.2019	0.351675	8.52083	0.535318	11.6486	0.770259	16.7075
0.306465	6.50241	0.081796	1.92253	0.0954016	2.16025	0.431836	9.11638	0.530997	11.2479	0.661957	13.9991	0.357111	8.4856	0.539392	11.5041	0.772945	16.4337
0.308963	6.42833	0.0839017	1.92977	0.0974143	2.16025	0.437876	9.06559	0.536541	11.1454	0.66565	13.8052	0.363335	8.44649	0.543511	11.3661	0.775671	16.1713
0.311338	6.35455	0.0860065	1.93667	0.0994269	2.16025	0.443993	9.01827	0.542169	11.0484	0.66939	13.6196	0.369542	8.40867	0.547674	11.2342	0.778438	15.9198
0.313598	6.28124	0.0881103	1.94328	0.10144	2.16025	0.449379	8.97958	0.547878	10.9567	0.673178	13.4419	0.375729	8.37197	0.551881	11.1082	0.781244	15.6784
0.315753	6.20855	0.0902133	1.9496	0.103452	2.16025	0.454007	8.9483	0.553665	10.8699	0.677011	13.2715	0.381893	8.33626	0.556131	10.9877	0.78409	15.4467
0.317813	6.13663	0.0923154	1.95565	0.105465	2.16025	0.457856	8.92351	0.559526	10.7877	0.68089	13.1081	0.388032	8.30143	0.560424	10.8724	0.786975	15.2241
0.319785	6.06559	0.0944167	1.96145	0.107478	2.16025	0.460913	8.90455	0.56546	10.7097	0.684813	12.9514	0.394142	8.26735	0.56476	10.762	0.789901	15.0102
0.321677	5.99552	0.0965171	1.96701	0.10949	2.16025	0.463168	8.89096	0.571463	10.6357	0.688781	12.8009	0.40022	8.23393	0.569139	10.6562	0.792866	14.8044
0.323496	5.92651	0.0986168	1.97235	0.111503	2.16025	0.464614	8.88241	0.577532	10.5655	0.692793	12.6563	0.406263	8.20106	0.573561	10.5549	0.795871	14.6064
0.325249	5.85861	0.100716	1.97748	0.113516	2.16025	0.466696	8.8703	0.583665	10.4987	0.696848	12.5173	0.412268	8.16865	0.578027	10.4578	0.798915	14.4158
0.32694	5.79188	0.102814	1.98242	0.115528	2.16025	0.468964	8.8574	0.589859	10.4353	0.700946	12.3837	0.418232	8.13661	0.582537	10.3647	0.802	14.2322
0.328577	5.72636	0.104912	1.98716	0.117541	2.16025	0.472057	8.84024	0.596112	10.3749	0.705087	12.2551	0.424152	8.10488	0.587091	10.2754	0.805125	14.0553
0.330163	5.66206	0.107008	1.99173	0.119554	2.16025	0.475979	8.81916	0.60242	10.3174	0.709269	12.1313	0.430025	8.07337	0.591689	10.1897	0.80829	13.8847
0.331703	5.59902	0.109105	1.99613	0.121567	2.16025	0.480736	8.79454	0.608783	10.2626	0.713494	12.0122	0.435848	8.04201	0.596333	10.1075	0.811496	13.7202
0.333202	5.53723	0.1112	2.00038	0.123579	2.16025	0.486335	8.76675	0.615196	10.2103	0.717761	11.8974	0.441617	8.01074	0.601022	10.0286	0.814742	13.5614
0.334663	5.47672	0.113296	2.00447	0.125592	2.16025	0.492779	8.73618	0.621658	10.1605	0.72207	11.7868	0.447329	7.9795	0.605757	9.95286	0.81803	13.4082
0.33609	5.41747	0.11539	2.00842	0.127605	2.16025	0.499238	8.70688	0.628166	10.1128	0.726421	11.6802	0.452982	7.94824	0.610538	9.88018	0.821358	13.2603
0.337485	5.35947	0.117484	2.01224	0.129617	2.16025	0.505708	8.67869	0.634719	10.0673	0.730813	11.5774	0.458572	7.9169	0.615366	9.81039	0.824728	13.1174
0.338853	5.30273	0.119578	2.01593	0.13163	2.16025	0.512183	8.65148	0.641312	10.0238	0.735248	11.4782	0.464096	7.88544	0.620241	9.74339	0.828138	12.9793
0.340194	5.24722	0.121671	2.01949	0.133643	2.16025	0.51866	8.62516	0.647945	9.98208	0.739725	11.3825	0.469552	7.85381	0.625164	9.67906	0.831591	12.8458
0.341513	5.19293	0.123763	2.02294	0.135655	2.16025	0.525136	8.5996	0.654615	9.94213	0.744245	11.2902	0.474936	7.82197	0.630135	9.61729	0.835085	12.7168
0.34281	5.13984	0.125856	2.02628	0.137668	2.16025	0.531606	8.57473	0.661318	9.9038	0.748809	11.2011	0.480247	7.7899	0.635153	9.55796	0.838621	12.5919
0.344089	5.08794	0.127947	2.02952	0.139681	2.16025	0.538067	8.55045	0.668054	9.86699	0.753417	11.1152	0.48548	7.75755	0.640218	9.50099	0.842198	12.4712
0.345351	5.0372	0.130039	2.03265	0.141693	2.16025	0.544517	8.5267	0.674818	9.83161	0.758069	11.0321	0.490634	7.72491	0.645332	9.44626	0.845817	12.3543
0.346597	4.9876	0.13213	2.03569	0.143706	2.16025	0.550952	8.50341	0.681609	9.79756	0.762767	10.952	0.495707	7.69194	0.649826	9.40032	0.849479	12.2412
0.347829	4.93911	0.13422	2.03863	0.145719	2.16025	0.55737	8.48051	0.688424	9.76474	0.767511	10.8747	0.500697	7.65864	0.653685	9.36241	0.853181	12.1317
0.349049	4.89172	0.13631	2.04149	0.147732	2.16025	0.563768	8.45797	0.69526	9.73308	0.772304	10.8	0.505601	7.62499	0.656895	9.3319	0.856926	12.0256
0.350258	4.8454	0.1384	2.04427	0.149744	2.16025	0.570145	8.43571	0.702114	9.70248	0.777145	10.7279	0.510418	7.59098	0.659446	9.30829	0.860712	11.9229
0.351458	4.80012	0.14049	2.04696	0.151757	2.16025	0.576497	8.41371	0.708983	9.67286	0.782038	10.6584	0.515147	7.5566	0.661328	9.29122	0.864539	11.8233
0.352648	4.75586	0.142579	2.04958	0.15377	2.16025	0.582822	8.39192	0.715864	9.64415	0.786982	10.5913	0.519786	7.52186	0.662536	9.28042	0.868407	11.7268
0.353831	4.7126	0.144668	2.05212	0.155782	2.16025	0.58912	8.37031	0.722754	9.61627	0.791981	10.5266	0.524335	7.48674	0.664276	9.26507	0.872316	11.6332
0.355008	4.67032	0.146757	2.0546	0.157795	2.16025	0.595387	8.34884	0.72965	9.58915	0.797036	10.4642	0.528793	7.45127	0.666173	9.2486	0.876265	11.5424
0.356178	4.62898	0.148845	2.057	0.159808	2.16025	0.601623	8.32748	0.736547	9.56271	0.80215	10.404	0.53316	7.41545	0.668762	9.22658	0.880254	11.4544
0.357344	4.58857	0.150933	2.05935	0.16182	2.16025	0.607824	8.3062	0.742557	9.54017	0.807324	10.3461	0.537435	7.37929	0.67205	9.19931	0.884283	11.369
0.358506	4.54906	0.153021	2.06163	0.163833	2.16025	0.61399	8.28498	0.747677	9.52129	0.812562	10.2904	0.541619	7.3428	0.676049	9.16719	0.888351	11.2861
0.359664	4.51043	0.155109	2.06385	0.165846	2.16025	0.620119	8.26379	0.751908	9.50589	0.817866	10.2368	0.545712	7.306	0.680769	9.13067	0.892457	11.2057
0.360819	4.47266	0.157196	2.06601	0.167858	2.16025	0.62621	8.24261	0.755251	9.49383	0.82324	10.1853	0.549715	7.26892	0.686223	9.09023	0.896602	11.1275
0.361972	4.43573	0.159284	2.06812	0.169871	2.16025	0.63226	8.22143	0.757707	9.48503	0.828685	10.1358	0.553628	7.23157	0.691716	9.05128	0.900784	11.0516
0.363123	4.3996	0.161371	2.07017	0.171884	2.16025	0.638269	8.20022	0.759278	9.47943	0.834205	10.0883	0.557452	7.19398	0.697246	9.01375	0.905003	10.9779
0.364274	4.36427	0.163457	2.07217	0.173897	2.16025	0.644235	8.17897	0.761535	9.47141	0.839804	10.0429	0.56119	7.15617	0.702811	8.97757	0.909259	10.9063
0.365275	4.33412	0.165544	2.07413	0.175909	2.16025	0.650157	8.15765	0.763987	9.46274	0.845483	9.99941	0.564841	7.11816	0.70841	8.94266	0.91355	10.8366
0.366129	4.30886	0.16763	2.07603	0.177922	2.16025	0.656033	8.13627	0.767317	9.45102	0.851247	9.95785	0.568408	7.07999	0.71404	8.90895	0.917877	10.7689
0.366835	4.28829	0.169716	2.07789	0.179935	2.16025	0.661862	8.11479	0.771523	9.4363	0.857097	9.91819	0.571893	7.04167	0.7197	8.87638	0.922237	10.7031
0.367394	4.27221	0.171802	2.07971	0.181947	2.16025	0.667643	8.09322	0.776598	9.41864	0.863037	9.88039	0.575296	7.00323	0.725387	8.84488	0.926632	10.6391
0.367804	4.2605	0.173888	2.08148	0.18396	2.16025	0.673374	8.07153	0.782534	9.39809	0.869067	9.84442	0.57862	6.9647	0.731099	8.8144	0.931059	10.5768
0.368067	4.25306	0.175974	2.08321	0.185973	2.16025	0.679055	8.04973	0.789319	9.37468	0.874397	9.81454	0.581867	6.92611	0.736833	8.78486	0.935519	10.5161
0.368445	4.24242	0.178059	2.08491	0.187985	2.16025	0.684684	8.02779	0.796073	9.35142	0.878997	9.79011	0.585038	6.88748	0.742589	8.75621	0.940011	10.4571
0.368856	4.23094	0.180145	2.08656	0.189998	2.16025	0.69026	8.00572	0.802791	9.32824	0.882839	9.77062	0.588137	6.84883	0.748362	8.7284	0.944534	10.3996
0.369415	4.21547	0.18223	2.08818	0.192011	2.16025	0.695783	7.9835	0.809471	9.30511	0.885902	9.75566	0.591164	6.8102	0.754152	8.70137	0.949087	10.3436
0.370122	4.19613	0.184315	2.08976	0.194023	2.16025	0.70125	7.96113	0.816108	9.282	0.888169	9.74491	0.594122	6.77159	0.759956	8.67508	0.95367	10.2891
0.370978	4.17309	0.1864	2.09131	0.196036	2.16025	0.706662	7.9386	0.822701	9.25888	0.889625	9.73814	0.597012	6.73304	0.765772	8.64948	0.958282	10.236
0.371983	4.14653	0.188484	2.09282	0.198049	2.16025	0.712017	7.9159	0.829248	9.23572	0.891728	9.72856	0.599838	6.69456	0.771597	8.62451	0.962923	10.1842
0.373138	4.11665	0.190569	2.0943	0.200062	2.16025	0.717315	7.89304	0.835747	9.2125	0.894024	9.71833	0.602601	6.65618	0.777429	8.60014	0.967592	10.1337
0.374295	4.0874	0.192653	2.09575	0.202074	2.16025	0.722554	7.87001	0.842197	9.18923	0.897167	9.70475	0.605302	6.61792	0.783267	8.57632	0.972288	10.0845
0.375455	4.05877	0.194738	2.09717	0.204087	2.16025	0.727735	7.84681	0.848599	9.1659	0.901171	9.68809	0.607945	6.57979	0.789108	8.55303	0.976403	10.0426
0.376617	4.03073	0.196822	2.09856	0.2061	2.16025	0.732856	7.82343	0.854952	9.14252	0.90606	9.6687	0.610531	6.54181	0.79495	8.5302	0.979926	10.0076
0.377781	4.00328	0.198906	2.09992	0.208112	2.16025	0.737917	7.79988	0.861258	9.1191	0.911856	9.64697	0.613062	6.504	0.800791	8.50782	0.98285	9.97915
0.378949	3.97639	0.20099	2.10125	0.210125	2.16025	0.742917	7.77615	0.867519	9.09566	0.918588	9.62334	0.61554	6.46637	0.806629	8.48585	0.985169	9.95694
0.38012	3.95006	0.203074	2.10256	0.212138	2.16025	0.747856	7.75225	0.873736	9.07222	0.925402	9.60102	0.617966	6.42893	0.812462	8.46426	0.986878	9.94078
0.381294	3.92427	0.205158	2.10384	0.21415	2.16025	0.752734	7.72818	0.879913	9.04881	0.932296	9.57994	0.620343	6.39171	0.818289	8.44301	0.987973	9.93052
0.382471	3.899	0.207241	2.10509	0.216163	2.16025	0.757551	7.70394	0.88605	9.02546	0.939265	9.56002	0.622672	6.35471	0.824107	8.42208	0.98955	9.91586
0.383652	3.87424	0.209325	2.10632	0.218176	2.16025	0.762305	7.67952	0.892152	9.00218	0.946306	9.5412	0.624956	6.31794	0.829915	8.40143	0.991268	9.90005
0.384837	3.84998	0.211408	2.10753	0.220188	2.16025	0.766998	7.65495	0.898222	8.97901	0.953413	9.5234	0.627195	6.28141	0.83571	8.38106	0.993608	9.87878
0.386026	3.82621	0.213492	2.10871	0.222201	2.16025	0.771628	7.63021	0.904261	8.95597	0.960584	9.50655	0.629392	6.24514	0.841492	8.36092	0.996577	9.85223
0.387218	3.80291	0.215575	2.10987	0.224214	2.16025	0.776197	7.60532	0.910274	8.93309	0.967813	9.49059	0.631547	6.20912	0.847258	8.341	1.00018	9.82065
0.388415	3.78008	0.217658	2.11101	0.226227	2.16025	0.780704	7.58028	0.916262	8.91038	0.975098	9.47545	0.633663	6.17338	0.853007	8.32127		
0.389616	3.75769	0.219741	2.11213	0.228239	2.16025	0.785149	7.5551	0.922228	8.88787	0.982433	9.46108	0.635742	6.13791	0.858738	8.30171		
0.390821	3.73575	0.221824	2.11323	0.230252	2.16025	0.789533	7.52977	0.928174	8.86557	0.989816	9.44741	0.637783	6.10273	0.864448	8.28232		
0.392031	3.71423	0.223907	2.1143	0.232265	2.16025	0.793855	7.50432	0.934102	8.84349	0.997243	9.43441	0.63979	6.06783	0.870136	8.26305		
0.393245	3.69313	0.22599	2.11536	0.234277	2.16025	0.798117	7.47873	0.940014	8.82165	1.00471	9.42201	0.641762	6.03323	0.875801	8.24391		
0.394463	3.67244	0.228073	2.1164	0.23629	2.16025	0.802318	7.45303	0.945912	8.80006			0.643702	5.99892	0.881441	8.22487		
0.395686	3.65215	0.230156	2.11742	0.238303	2.16025	0.806459	7.42722	0.951797	8.77872			0.645611	5.96492	0.887055	8.20591		
0.396914	3.63224	0.232238	2.11842	0.240315	2.16025	0.810541	7.4013	0.95767	8.75763			0.64749	5.93122	0.892642	8.18703		
0.398146	3.61272	0.234321	2.11941	0.242328	2.16025	0.814564	7.37529	0.963532	8.73679			0.64934	5.89783	0.8982	8.16821		
0.399383	3.59356	0.236403	2.12037	0.244341	2.16025	0.818528	7.34919	0.969384	8.71622			0.651162	5.86475	0.903727	8.14943		
0.400625	3.57477	0.238486	2.12132	0.246353	2.16025	0.822435	7.32301	0.975226	8.6959			0.652958	5.83199	0.909224	8.13069		
0.401871	3.55632	0.240568	2.12226	0.248366	2.16025	0.826285	7.29675	0.981058	8.67583			0.654728	5.79954	0.914689	8.11197		
0.403122	3.53822	0.24265	2.12318	0.250379	2.16025	0.830078	7.27043	0.986882	8.65601			0.656473	5.7674	0.92012	8.09326		
0.404379	3.52046	0.244733	2.12408	0.252391	2.16025	0.833815	7.24405	0.992697	8.63644			0.658195	5.73558	0.925517	8.07456		
0.40564	3.50303	0.246815	2.12497	0.254404	2.16025	0.837498	7.21762	0.998503	8.6171			0.659894	5.70408	0.930878	8.05585		
0.406906	3.48591	0.248897	2.12584	0.256417	2.16025	0.841126	7.19115	1.0043	8.598			0.661572	5.67289	0.936203	8.03713		
