Sym0		Asym0		Sym1		Sym2		Sym3		Asym1		Asym3		Asym4	
469  Points		493  Points		191  Points		132  Points		120  Points		367  Points		145  Points		116  Points	
Freq (MHz)	Vgr (m/ms)	Freq (MHz)	Vgr (m/ms)	Freq (MHz)	Vgr (m/ms)	Freq (MHz)	Vgr (m/ms)	Freq (MHz)	Vgr (m/ms)	Freq (MHz)	Vgr (m/ms)	Freq (MHz)	Vgr (m/ms)	Freq (MHz)	Vgr (m/ms)
0.005149	7.97213	0.000156274	0.373443	0.27951	0.0980385	0.419764	0.0591983	0.559021	0.0749728	0.139915	0.607205	0.419284	0.133529	0.698772	0.0404861
0.0125766	7.97064	0.000504209	0.476434	0.279601	0.177023	0.419819	0.0957006	0.559091	0.122243	0.140481	0.822716	0.419408	0.193031	0.698809	0.074595
0.0200014	7.96682	0.00104406	0.677742	0.279839	0.334656	0.419942	0.168879	0.559249	0.21674	0.141448	1.24828	0.419644	0.311916	0.698911	0.142791
0.0274219	7.96123	0.00176711	0.868393	0.280225	0.491351	0.420133	0.242581	0.559495	0.31103	0.142807	1.66104	0.41999	0.430521	0.699075	0.210921
0.0348363	7.95379	0.00266221	1.04616	0.280755	0.646686	0.420394	0.316961	0.559828	0.405129	0.144543	2.05759	0.420446	0.548639	0.699304	0.278992
0.0422429	7.94454	0.0037165	1.20957	0.28143	0.800251	0.420724	0.392187	0.560249	0.498991	0.146641	2.43533	0.421012	0.666223	0.699595	0.346947
0.0496401	7.93337	0.00491611	1.35783	0.282246	0.951668	0.421125	0.46859	0.560758	0.592525	0.149081	2.79245	0.421687	0.783178	0.69995	0.414741
0.0570259	7.9202	0.00624667	1.49073	0.283203	1.10062	0.421597	0.546324	0.561354	0.685697	0.151844	3.12788	0.422471	0.899315	0.700368	0.482361
0.0643985	7.90497	0.00769393	1.60865	0.284297	1.24662	0.422143	0.625546	0.562036	0.778438	0.15491	3.44117	0.423363	1.01455	0.700849	0.549778
0.0717559	7.88756	0.00924422	1.7123	0.285526	1.38942	0.422763	0.7065	0.562804	0.870681	0.158256	3.73246	0.424362	1.12878	0.701392	0.616935
0.0790961	7.86789	0.0108846	1.80255	0.286886	1.52884	0.423459	0.78938	0.563658	0.962371	0.161865	4.00228	0.425467	1.24196	0.701998	0.683868
0.0864169	7.84585	0.0126031	1.8805	0.288375	1.66449	0.424234	0.874354	0.564597	1.05354	0.165714	4.25145	0.426676	1.35391	0.702667	0.75057
0.093716	7.82124	0.0143887	1.94743	0.289988	1.79618	0.425088	0.961612	0.565621	1.14403	0.169787	4.48099	0.427989	1.46459	0.703397	0.816884
0.100991	7.79393	0.0162319	2.00452	0.291722	1.92384	0.426026	1.05139	0.566729	1.23382	0.174064	4.69208	0.429405	1.57388	0.704189	0.882863
0.108239	7.76369	0.0181239	2.05294	0.293573	2.04727	0.427048	1.14377	0.56792	1.32287	0.17853	4.88587	0.430922	1.68172	0.705042	0.948536
0.115458	7.73039	0.0200573	2.09374	0.295536	2.16645	0.428157	1.2389	0.569194	1.41118	0.183168	5.06363	0.432539	1.78805	0.705956	1.01382
0.122644	7.69375	0.0220254	2.12796	0.29761	2.28141	0.429356	1.33703	0.57055	1.49874	0.187965	5.22651	0.434254	1.89274	0.706931	1.07868
0.129794	7.65349	0.0240225	2.15655	0.299788	2.39208	0.430648	1.4382	0.571987	1.58538	0.192907	5.37561	0.436066	1.99579	0.707966	1.14308
0.136905	7.60937	0.0260439	2.18034	0.302067	2.49873	0.432036	1.54247	0.573504	1.67115	0.197982	5.51203	0.437973	2.09707	0.709061	1.20705
0.143973	7.56106	0.0278218	2.19766	0.304444	2.6015	0.433523	1.65002	0.575101	1.75603	0.203178	5.63677	0.439974	2.19658	0.710216	1.27055
0.150994	7.50822	0.0293475	2.21032	0.306914	2.70062	0.435111	1.76083	0.576776	1.83995	0.208486	5.75075	0.442066	2.2943	0.711429	1.33353
0.157964	7.45046	0.0306153	2.21945	0.309476	2.79648	0.436804	1.87491	0.578529	1.92291	0.213894	5.85479	0.444249	2.39014	0.712701	1.39606
0.164878	7.38738	0.0316212	2.22572	0.312125	2.88946	0.438604	1.99227	0.580359	2.00488	0.219395	5.94962	0.44652	2.48403	0.71403	1.45798
0.17173	7.31856	0.0323625	2.23011	0.31486	2.98007	0.440516	2.11286	0.582265	2.08585	0.224981	6.03602	0.448877	2.57603	0.715417	1.51935
0.178515	7.24354	0.0328377	2.23276	0.317678	3.06892	0.442542	2.23658	0.584246	2.16575	0.230643	6.11464	0.45132	2.66605	0.716861	1.5802
0.185227	7.16177	0.0335218	2.23618	0.320579	3.1566	0.444684	2.36323	0.586301	2.24462	0.236375	6.18595	0.453845	2.75409	0.718362	1.64045
0.19186	7.07279	0.0342665	2.23962	0.32356	3.24387	0.446945	2.49276	0.588429	2.32246	0.24217	6.25057	0.456452	2.84016	0.719918	1.70009
0.198407	6.97613	0.035281	2.24389	0.326623	3.33153	0.449329	2.6249	0.590629	2.39918	0.248022	6.30891	0.459138	2.92419	0.72153	1.75908
0.204859	6.87122	0.0365667	2.24874	0.329768	3.42035	0.451836	2.75937	0.592899	2.47483	0.253926	6.36144	0.461901	3.00627	0.723196	1.81745
0.21121	6.75762	0.038125	2.25368	0.332997	3.51127	0.45447	2.89591	0.59524	2.54938	0.259876	6.40857	0.46474	3.08635	0.724916	1.87523
0.217451	6.63488	0.0399569	2.25846	0.336311	3.60508	0.457233	3.03414	0.59765	2.62282	0.265867	6.45052	0.467652	3.1644	0.72669	1.93235
0.223574	6.5027	0.0420634	2.26279	0.339715	3.7026	0.460124	3.17379	0.600127	2.69514	0.271896	6.48776	0.470636	3.24053	0.728517	1.98879
0.229568	6.36088	0.0441734	2.26606	0.343211	3.80463	0.463147	3.31444	0.602672	2.76639	0.277176	6.51668	0.47369	3.3147	0.730396	2.04461
0.235427	6.20921	0.0462859	2.26846	0.346804	3.9118	0.4663	3.45569	0.605282	2.83654	0.281694	6.53865	0.476813	3.38694	0.732327	2.09972
0.241139	6.04796	0.0484004	2.27014	0.3505	4.02462	0.469586	3.59714	0.607958	2.90556	0.285441	6.55509	0.480001	3.4573	0.734309	2.15412
0.246696	5.87744	0.0505161	2.27119	0.354303	4.14333	0.473003	3.73839	0.610697	2.9735	0.28841	6.56699	0.483255	3.52581	0.736341	2.20792
0.252091	5.69812	0.0526325	2.2718	0.35822	4.26804	0.476552	3.87901	0.613498	3.04032	0.290597	6.57511	0.486571	3.59251	0.738423	2.26103
0.257314	5.51102	0.0547493	2.27199	0.362256	4.39849	0.480231	4.01861	0.616362	3.10608	0.291998	6.58005	0.489949	3.65744	0.740554	2.31342
0.26236	5.31721	0.0568661	2.27186	0.366417	4.53416	0.48404	4.15689	0.619286	3.17078	0.294013	6.58683	0.493387	3.72064	0.742734	2.36517
0.267222	5.11804	0.0589827	2.27147	0.370705	4.67425	0.487977	4.2934	0.62227	3.23442	0.296206	6.59369	0.496882	3.78214	0.744961	2.41629
0.271897	4.91519	0.0610988	2.27091	0.375127	4.81768	0.49204	4.42785	0.625313	3.29702	0.299192	6.60217	0.500434	3.84209	0.747236	2.46669
0.276381	4.71032	0.0632143	2.27019	0.379683	4.96318	0.496228	4.56002	0.628414	3.35859	0.302973	6.61173	0.504041	3.90054	0.749558	2.51643
0.280674	4.50528	0.065329	2.26935	0.384375	5.10931	0.500538	4.68958	0.631571	3.41909	0.307553	6.62152	0.507702	3.95744	0.751925	2.5656
0.284776	4.30197	0.067443	2.26842	0.389203	5.25451	0.504967	4.81629	0.634785	3.47865	0.312933	6.63054	0.511416	4.01296	0.754339	2.61406
0.28869	4.10212	0.069556	2.26744	0.394166	5.39718	0.509512	4.93998	0.638054	3.53727	0.319115	6.63785	0.51518	4.06715	0.756796	2.66191
0.29242	3.9072	0.0716681	2.26644	0.39926	5.53595	0.514172	5.06052	0.641376	3.59489	0.325302	6.64202	0.518994	4.1201	0.759299	2.7092
0.295971	3.7187	0.0737792	2.26536	0.404482	5.66964	0.518942	5.17774	0.644752	3.65161	0.331492	6.64297	0.522857	4.17194	0.761845	2.75587
0.299349	3.53777	0.0758893	2.2643	0.409131	5.78113	0.52382	5.29162	0.648181	3.70748	0.337681	6.64084	0.526768	4.22266	0.764434	2.80197
0.302563	3.36516	0.0779985	2.26322	0.413165	5.87195	0.528802	5.40205	0.651661	3.76246	0.343866	6.63571	0.530726	4.27239	0.767066	2.84753
0.30562	3.2016	0.0801066	2.26217	0.416546	5.94385	0.533886	5.50894	0.655192	3.81661	0.350046	6.62762	0.534729	4.32124	0.76974	2.89256
0.308529	3.04739	0.0822138	2.26117	0.419249	5.99848	0.539068	5.61236	0.658773	3.86997	0.356216	6.61654	0.538778	4.36928	0.772456	2.93707
0.311298	2.90266	0.08432	2.26012	0.421251	6.03755	0.544344	5.71225	0.662403	3.92257	0.362375	6.60251	0.542871	4.41667	0.775213	2.98104
0.313938	2.76746	0.0864253	2.25912	0.42254	6.06194	0.549712	5.80862	0.666082	3.97446	0.368519	6.5856	0.547008	4.46339	0.778011	3.02461
0.316455	2.64157	0.0885297	2.25814	0.424401	6.09596	0.555168	5.90152	0.669809	4.02571	0.374646	6.56587	0.551188	4.5096	0.780849	3.06773
0.31886	2.52463	0.0906331	2.25721	0.426435	6.13193	0.560709	5.99095	0.673583	4.07628	0.380754	6.54319	0.555411	4.55543	0.783727	3.11045
0.32116	2.41635	0.0927357	2.25635	0.429221	6.17911	0.566331	6.07693	0.677405	4.12631	0.386839	6.5176	0.559677	4.60094	0.786645	3.15276
0.323362	2.31625	0.0948375	2.25544	0.432774	6.23579	0.572032	6.15962	0.681272	4.17582	0.392899	6.4892	0.563985	4.6462	0.789602	3.19467
0.325476	2.22387	0.0969385	2.25458	0.437113	6.29999	0.577809	6.23892	0.685186	4.22482	0.398931	6.45787	0.568334	4.6913	0.792598	3.23631
0.327506	2.13878	0.0990387	2.25378	0.442257	6.36933	0.583658	6.31492	0.689145	4.27346	0.404932	6.4236	0.572726	4.73638	0.795632	3.27761
0.329461	2.06037	0.101138	2.25298	0.448227	6.44127	0.589576	6.38774	0.693149	4.32175	0.410901	6.38643	0.57716	4.78142	0.798705	3.31863
0.331346	1.9883	0.103237	2.25225	0.45426	6.50529	0.595561	6.45734	0.697198	4.36975	0.416833	6.34639	0.581636	4.82654	0.801816	3.35935
0.333166	1.9221	0.105335	2.25156	0.460349	6.56165	0.601609	6.52376	0.701291	4.41756	0.422726	6.3034	0.586154	4.87181	0.804965	3.39985
0.334927	1.86124	0.107432	2.25085	0.466487	6.61071	0.607717	6.58701	0.705429	4.46521	0.428578	6.25745	0.590714	4.91722	0.808152	3.44013
0.336634	1.80537	0.109529	2.25016	0.472667	6.65285	0.613883	6.64715	0.709612	4.51283	0.434386	6.20858	0.595317	4.96286	0.811375	3.48018
0.338291	1.75413	0.111625	2.24952	0.478884	6.68861	0.620103	6.70423	0.713839	4.56053	0.440147	6.15679	0.599962	5.00873	0.814636	3.52008
0.339903	1.70716	0.113721	2.24895	0.485131	6.71835	0.626375	6.75817	0.71811	4.6084	0.445859	6.10207	0.60465	5.05483	0.817935	3.55981
0.341473	1.66406	0.115816	2.24837	0.491403	6.74249	0.632696	6.80901	0.722426	4.65646	0.451518	6.0445	0.609381	5.10119	0.82127	3.59934
0.343004	1.62458	0.117911	2.24779	0.497695	6.76148	0.639063	6.85678	0.726787	4.70489	0.457122	5.98411	0.613539	5.1417	0.824642	3.63872
0.3445	1.58839	0.120005	2.24728	0.504002	6.77562	0.645473	6.9014	0.731193	4.75387	0.462669	5.92089	0.61711	5.17631	0.82805	3.67801
0.345964	1.55528	0.122098	2.24676	0.51032	6.78533	0.651923	6.94284	0.735645	4.8034	0.468155	5.85492	0.62008	5.20506	0.831495	3.71717
0.347398	1.52502	0.124191	2.24629	0.516646	6.79092	0.65841	6.98102	0.740144	4.85368	0.473579	5.78631	0.622441	5.22788	0.834977	3.75616
0.348805	1.4973	0.126284	2.24583	0.522974	6.79262	0.664932	7.01594	0.744689	4.90489	0.478937	5.71516	0.624183	5.2445	0.838494	3.79504
0.350188	1.47198	0.128376	2.24535	0.529303	6.79083	0.671484	7.04754	0.749283	4.95712	0.484228	5.64157	0.625301	5.25516	0.842048	3.83383
0.351548	1.44887	0.130468	2.24492	0.535628	6.78572	0.678064	7.07573	0.753926	5.01062	0.48945	5.56563	0.626912	5.27057	0.845638	3.87243
0.352888	1.42785	0.132559	2.24452	0.541947	6.77753	0.684669	7.10047	0.75862	5.06554	0.494599	5.48753	0.628669	5.28731	0.849264	3.91091
0.354209	1.40867	0.13465	2.24411	0.548258	6.76651	0.690442	7.11912	0.763365	5.12199	0.499675	5.40738	0.631067	5.31009	0.852926	3.94925
0.355513	1.39124	0.136741	2.24375	0.554556	6.75276	0.695374	7.13278	0.768164	5.18025	0.504675	5.32534	0.634114	5.33881	0.856623	3.98742
0.356801	1.37543	0.138831	2.24339	0.560841	6.73655	0.699459	7.14248	0.773018	5.24053	0.509598	5.2417	0.637821	5.37345	0.860356	4.02538
0.358076	1.36109	0.140921	2.24303	0.567109	6.71793	0.702693	7.14921	0.777929	5.30299	0.514443	5.15659	0.642201	5.4139	0.864124	4.0632
0.359337	1.34816	0.143011	2.24273	0.573359	6.69709	0.705073	7.15342	0.7829	5.36785	0.519207	5.0702	0.647266	5.46001	0.867927	4.10083
0.360588	1.3365	0.1451	2.24241	0.579588	6.67418	0.706596	7.15582	0.787932	5.43532	0.52389	4.98276	0.652375	5.50566	0.871765	4.13816
0.361828	1.32601	0.147189	2.24206	0.585795	6.64925	0.708788	7.15905	0.793028	5.5056	0.528492	4.89448	0.657525	5.55071	0.875638	4.17532
0.363059	1.3166	0.149278	2.24177	0.591978	6.62243	0.71117	7.1619	0.798191	5.57883	0.533011	4.80559	0.662718	5.59503	0.879546	4.21222
0.364281	1.30824	0.151367	2.24152	0.598136	6.59378	0.714412	7.16486	0.803423	5.65521	0.537447	4.71635	0.667951	5.63846	0.883487	4.24879
0.365496	1.30084	0.153455	2.24121	0.604265	6.56346	0.718514	7.16733	0.808729	5.73487	0.541799	4.62691	0.673224	5.68083	0.887463	4.28511
0.366705	1.29432	0.155543	2.24095	0.610366	6.53141	0.723475	7.16805	0.81411	5.8178	0.546068	4.53751	0.678537	5.72623	0.891472	4.32112
0.367908	1.28859	0.157631	2.24074	0.616436	6.49774	0.729294	7.16579	0.81957	5.9039	0.550254	4.44839	0.683895	5.76214	0.895515	4.35674
0.369106	1.28358	0.159718	2.24046	0.622474	6.46259	0.735969	7.15913	0.824394	5.98158	0.554357	4.35967	0.689274	5.79662	0.89959	4.39201
0.370147	1.27986	0.161805	2.24021	0.628478	6.42594	0.742635	7.14796	0.828557	6.0496	0.558378	4.27165	0.694696	5.83784	0.903699	4.42697
0.371032	1.27701	0.163893	2.24004	0.634448	6.3878	0.749288	7.13216	0.832036	6.10708	0.562317	4.18443	0.700152	5.87329	0.90784	4.4615
0.371762	1.27494	0.16598	2.23981	0.640381	6.34826	0.755925	7.11166	0.83481	6.15329	0.566175	4.09812	0.70564	5.90701	0.912012	4.49562
0.372338	1.27354	0.168066	2.23955	0.646277	6.30739	0.76254	7.08658	0.836863	6.18765	0.569954	4.01296	0.711159	5.939	0.916217	4.52931
0.372762	1.27254	0.170153	2.23939	0.652134	6.26524	0.76913	7.05701	0.838183	6.20982	0.573653	3.92907	0.716707	5.96909	0.920452	4.56262
0.373033	1.27194	0.172239	2.23919	0.657952	6.22176	0.77569	7.02311	0.840089	6.24193	0.577275	3.84655	0.722282	5.99721	0.924719	4.59547
0.373422	1.27119	0.174325	2.23899	0.663728	6.17698	0.782217	6.98514	0.842172	6.27705	0.580821	3.76549	0.727882	6.02339	0.929015	4.62785
0.373845	1.27035	0.176411	2.23881	0.669462	6.13108	0.788706	6.94349	0.845023	6.32521	0.584291	3.68595	0.733506	6.04754	0.933342	4.6598
0.37442	1.26937	0.178497	2.23865	0.675152	6.084	0.795155	6.89867	0.848661	6.38678	0.587689	3.6081	0.739151	6.06961	0.937698	4.69133
0.375146	1.26837	0.180583	2.2385	0.680798	6.03574	0.801561	6.85122	0.853107	6.46178	0.591015	3.53189	0.744816	6.08966	0.941518	4.71838
0.376023	1.26731	0.182668	2.23831	0.686399	5.98641	0.807921	6.80178	0.858389	6.55032	0.59427	3.45742	0.750498	6.10763	0.944792	4.74121
0.377052	1.26646	0.184753	2.23814	0.691954	5.93604	0.814235	6.75103	0.86454	6.65209	0.597457	3.38481	0.756197	6.1235	0.947511	4.75993
0.378231	1.26586	0.186839	2.23799	0.69746	5.88467	0.820501	6.69972	0.870785	6.75344	0.600577	3.31394	0.761909	6.13729	0.949668	4.77454
0.379411	1.2657	0.188924	2.23783	0.702919	5.83229	0.826719	6.64858	0.877124	6.85356	0.603632	3.24492	0.767633	6.14902	0.951259	4.7851
0.38059	1.26588	0.191009	2.23768	0.708328	5.77903	0.83289	6.59825	0.883556	6.95181	0.606624	3.17774	0.773367	6.15866	0.952279	4.79195
0.381769	1.2664	0.193093	2.23757	0.713688	5.72494	0.839015	6.54943	0.890078	7.04759	0.609554	3.1124	0.779109	6.16634	0.953747	4.80184
0.38295	1.26729	0.195178	2.23744	0.718996	5.66999	0.845094	6.50265	0.896688	7.1403	0.612424	3.0489	0.784857	6.17201	0.955347	4.81236
0.384131	1.26847	0.197263	2.23731	0.724253	5.61428	0.851132	6.45831	0.903383	7.22954	0.615235	2.98723	0.79061	6.17568	0.957528	4.8266
0.385313	1.26993	0.199347	2.23717	0.729458	5.5579	0.857129	6.41676	0.91016	7.31485	0.61799	2.92739	0.796365	6.17745	0.960295	4.84442
0.386497	1.27173	0.201431	2.23702	0.734609	5.50085	0.863088	6.37834	0.917014	7.39599	0.62069	2.86931	0.802121	6.17727	0.963655	4.86576
0.387683	1.27373	0.203516	2.23695	0.739708	5.44321	0.869014	6.34316	0.923941	7.47282	0.623337	2.81302	0.807876	6.17524	0.967616	4.8905
0.388871	1.27593	0.2056	2.23684	0.744752	5.38506	0.874908	6.31122	0.930938	7.54525	0.625932	2.75847	0.813628	6.1714	0.972186	4.91855
0.390061	1.27843	0.207684	2.23667	0.749742	5.32646	0.880774	6.2825	0.938001	7.61329	0.628477	2.7056	0.819375	6.16571	0.976781	4.94617
0.391253	1.2811	0.209767	2.23656	0.754678	5.26747	0.886615	6.2569	0.945125	7.67705	0.630973	2.65445	0.825117	6.15829	0.981402	4.97334
0.392448	1.28398	0.211851	2.2365	0.759558	5.20812	0.892433	6.23429	0.952306	7.73658	0.633423	2.60495	0.830851	6.14916	0.986049	5.00011
0.393646	1.28699	0.213935	2.23639	0.764382	5.14853	0.898232	6.21448	0.959541	7.79197	0.635827	2.55706	0.836575	6.13833	0.990719	5.02646
0.394846	1.29018	0.216018	2.23627	0.769151	5.08871	0.904013	6.19726	0.966826	7.84355	0.638188	2.51071	0.842289	6.12592	0.995415	5.05245
0.39605	1.29354	0.218102	2.23617	0.773865	5.02876	0.90978	6.18238	0.974157	7.89142	0.640506	2.46589	0.84799	6.11188	1.00013	5.06539
0.397256	1.29704	0.220185	2.23608	0.778522	4.96873	0.915534	6.1696	0.981531	7.93579	0.642783	2.42264	0.853677	6.09625		
0.398467	1.3007	0.222269	2.236	0.783123	4.90868	0.921276	6.15866	0.988944	7.97687	0.64502	2.3808	0.85935	6.07914		
0.39968	1.30444	0.224352	2.23593	0.787669	4.84874	0.92701	6.14935	0.996395	8.01481	0.647219	2.34036	0.865005	6.06055		
0.400897	1.30828	0.226435	2.23582	0.792158	4.78885	0.932735	6.14151	1.00388	8.03302	0.649381	2.30132	0.870643	6.04049		
0.402118	1.31229	0.228518	2.23572	0.796592	4.72909	0.938454	6.13484			0.651507	2.2636	0.876261	6.01907		
0.403342	1.31638	0.230601	2.23564	0.80097	4.66955	0.944166	6.12909			0.653599	2.22719	0.881859	5.99627		
0.404571	1.32051	0.232684	2.23556	0.805293	4.6103	0.949874	6.12417			0.655657	2.19207	0.887434	5.97216		
0.405803	1.32474	0.234767	2.23549	0.809561	4.55138	0.955578	6.11987			0.657684	2.15818	0.892987	5.94678		
0.407039	1.32909	0.23685	2.23541	0.813774	4.4928	0.961278	6.116			0.659679	2.12549	0.898516	5.92014		
0.40828	1.3335	0.238932	2.23534	0.817933	4.43462	0.966975	6.11246			0.661644	2.09394	0.904019	5.89235		
0.409524	1.33793	0.241015	2.23527	0.822038	4.37686	0.972668	6.10904			0.663581	2.06348	0.909495	5.86341		
0.410773	1.34246	0.243097	2.23519	0.826089	4.31959	0.978358	6.10564			0.665489	2.03412	0.914945	5.83333		
0.412026	1.34703	0.24518	2.23512	0.830087	4.26284	0.984045	6.10222			0.667371	2.00585	0.920365	5.80218		
0.413283	1.35166	0.247262	2.23508	0.834032	4.20663	0.989729	6.09857			0.669227	1.97857	0.925756	5.77002		
0.414544	1.35635	0.249345	2.23499	0.837925	4.15098	0.995409	6.09466			0.671058	1.95226	0.931117	5.73687		
0.41581	1.36105	0.251427	2.23491	0.841767	4.09595	1.00109	6.09265			0.672865	1.92691	0.936446	5.70279		
0.417081	1.36577	0.253509	2.23487	0.845558	4.04155					0.674649	1.90248	0.941743	5.66785		
0.418355	1.37059	0.255591	2.23481	0.849298	3.98777					0.67641	1.87895	0.947008	5.63206		
0.419634	1.37538	0.257674	2.23474	0.852989	3.93466					0.67815	1.85627	0.952238	5.59546		
0.420918	1.38019	0.259756	2.23468	0.85663	3.88221					0.679869	1.83445	0.957434	5.55811		
0.422206	1.38505	0.261838	2.23464	0.860223	3.83046					0.681568	1.81344	0.962595	5.52007		
0.423499	1.38993	0.26392	2.23459	0.863768	3.77943					0.683248	1.79316	0.96772	5.48134		
0.424796	1.39483	0.266002	2.23449	0.867265	3.72912					0.684909	1.77367	0.972809	5.44202		
0.426098	1.39973	0.268083	2.23447	0.870716	3.6795					0.686553	1.75489	0.977861	5.40214		
0.427405	1.40463	0.270165	2.23443	0.874122	3.63063					0.68818	1.73682	0.982875	5.36174		
0.428715	1.40954	0.272247	2.23433	0.877482	3.5825					0.68979	1.71947	0.987852	5.32084		
0.430031	1.41444	0.274329	2.23429	0.880797	3.53507					0.691384	1.7027	0.99279	5.27952		
0.431351	1.41939	0.27641	2.23426	0.884069	3.48844					0.692962	1.68663	0.99769	5.23784		
0.432676	1.42431	0.278492	2.23422	0.887297	3.44248					0.694526	1.67115	1.00255	5.21691		
0.434005	1.42923	0.280574	2.23415	0.890484	3.39732					0.696076	1.65624				
0.435339	1.43418	0.282655	2.23412	0.893628	3.35291					0.697613	1.64194				
0.436678	1.4391	0.284737	2.23407	0.896731	3.3092					0.699136	1.62819				
0.438021	1.44402	0.286818	2.23405	0.899794	3.26626					0.700647	1.61498				
0.439368	1.44893	0.288899	2.234	0.902818	3.22406					0.702145	1.60226				
0.440721	1.45381	0.290981	2.23394	0.905802	3.18256					0.703632	1.59005				
0.442077	1.4587	0.293062	2.2339	0.908748	3.14182					0.705108	1.5783				
0.443439	1.4636	0.295143	2.23385	0.911656	3.10182					0.706573	1.56704				
0.444805	1.46846	0.297225	2.23383	0.914528	3.06248					0.708028	1.55625				
0.446175	1.47331	0.299306	2.23378	0.917363	3.02388					0.709473	1.54587				
0.44755	1.47812	0.301387	2.23372	0.920163	2.98598					0.710909	1.53592				
0.448929	1.48298	0.303468	2.23372	0.922927	2.94882					0.712335	1.52637				
0.450313	1.48778	0.305549	2.23369	0.925657	2.91234					0.713753	1.51723				
