Sym0		Asym0		Sym1		Sym2		Sym3		Sym4		Asym1		Asym3	
472  Points		493  Points		472  Points		204  Points		131  Points		121  Points		380  Points		143  Points	
Freq (MHz)	Vgr (m/ms)	Freq (MHz)	Vgr (m/ms)	Freq (MHz)	Vgr (m/ms)	Freq (MHz)	Vgr (m/ms)	Freq (MHz)	Vgr (m/ms)	Freq (MHz)	Vgr (m/ms)	Freq (MHz)	Vgr (m/ms)	Freq (MHz)	Vgr (m/ms)
0.00377366	8.12191	6.96771e-005	0.289443	0.00668411	8.12111	0.279535	0.173763	0.391865	0.0611359	0.559018	0.0637365	0.139865	0.555421	0.419278	0.125843
0.0113408	8.12058	0.00033935	0.395862	0.0142505	8.11944	0.279697	0.252586	0.391922	0.10103	0.559077	0.112234	0.140382	0.779343	0.419396	0.187372
0.0189055	8.11702	0.000807322	0.604376	0.0218138	8.11515	0.280005	0.409732	0.392053	0.181087	0.559227	0.209166	0.141317	1.22172	0.419628	0.310289
0.026466	8.11167	0.00146554	0.802777	0.0293722	8.10908	0.28046	0.565529	0.392259	0.261734	0.559467	0.305986	0.142659	1.65111	0.419974	0.432856
0.0340207	8.1044	0.00230321	0.988567	0.0369242	8.1011	0.281059	0.719433	0.392541	0.343339	0.559797	0.402651	0.144394	2.06386	0.420434	0.554944
0.0415676	8.09521	0.00330762	1.15998	0.0444677	8.09116	0.281801	0.871014	0.392899	0.426205	0.560218	0.49901	0.146505	2.45708	0.421008	0.676439
0.0491052	8.08408	0.0044647	1.31581	0.0520011	8.07925	0.282682	1.01971	0.393335	0.51049	0.560727	0.595049	0.148972	2.82868	0.421695	0.797188
0.0566314	8.07091	0.00575949	1.45572	0.0595225	8.06525	0.283701	1.16512	0.39385	0.596589	0.561326	0.690738	0.151776	3.17754	0.422493	0.917105
0.0641444	8.05555	0.00717726	1.57997	0.0670299	8.04904	0.284853	1.3069	0.394447	0.684778	0.562014	0.78595	0.154893	3.50312	0.423403	1.03609
0.0716421	8.03786	0.00870358	1.6891	0.074521	8.03046	0.286136	1.44463	0.395126	0.775317	0.562791	0.880647	0.158303	3.80551	0.424424	1.15394
0.0791221	8.0178	0.0103247	1.78408	0.0819937	8.00942	0.287545	1.57799	0.395891	0.868432	0.563655	0.974827	0.161985	4.08537	0.425554	1.27061
0.0865823	7.99517	0.012028	1.86609	0.0894457	7.98573	0.289077	1.70674	0.396745	0.964353	0.564607	1.06841	0.165916	4.34342	0.426792	1.38598
0.0940202	7.96978	0.013802	1.93636	0.0968743	7.95921	0.290726	1.83063	0.397688	1.0634	0.565646	1.16131	0.170078	4.58082	0.428136	1.49988
0.101433	7.94139	0.0156362	1.99619	0.104277	7.92976	0.292488	1.94959	0.398726	1.16576	0.566771	1.25352	0.174452	4.79883	0.429587	1.61234
0.108818	7.90983	0.0175216	2.04678	0.110704	7.90141	0.294358	2.0635	0.399861	1.27168	0.567982	1.34498	0.17902	4.99865	0.431141	1.72322
0.116172	7.87481	0.0194502	2.0893	0.116164	7.8752	0.296333	2.17238	0.401096	1.38127	0.569278	1.43562	0.183766	5.18165	0.432798	1.83239
0.123492	7.83599	0.0214148	2.1249	0.120665	7.85193	0.298406	2.27633	0.402434	1.49469	0.570657	1.52542	0.188676	5.34908	0.434555	1.93978
0.130774	7.79306	0.0234097	2.15448	0.124214	7.83247	0.300575	2.37553	0.403881	1.6121	0.57212	1.61434	0.193734	5.50209	0.436412	2.04535
0.138014	7.74565	0.0254295	2.17902	0.126818	7.81763	0.302833	2.47036	0.405438	1.73349	0.573665	1.70232	0.198928	5.64183	0.438367	2.14906
0.145207	7.69332	0.0272065	2.19693	0.128481	7.80781	0.305178	2.56115	0.407111	1.85892	0.575292	1.78936	0.204247	5.76935	0.440417	2.25077
0.152349	7.6356	0.0287319	2.20983	0.130869	7.79314	0.307605	2.64847	0.408902	1.98834	0.577	1.87541	0.209679	5.8856	0.442561	2.35049
0.159435	7.57195	0.0299994	2.21915	0.13346	7.77665	0.310113	2.73303	0.410816	2.12165	0.578787	1.96043	0.215214	5.99152	0.444796	2.44819
0.166459	7.50184	0.0310053	2.22566	0.136974	7.75333	0.312698	2.81556	0.412856	2.2587	0.580653	2.04439	0.220843	6.08787	0.447122	2.54377
0.173414	7.42462	0.0317466	2.23011	0.141403	7.72212	0.315359	2.89698	0.415025	2.3992	0.582596	2.12729	0.226558	6.17539	0.449537	2.63722
0.180294	7.3396	0.0322218	2.23276	0.146734	7.68181	0.318096	2.97838	0.417326	2.54296	0.584617	2.20908	0.23235	6.25477	0.452037	2.72853
0.18709	7.2461	0.0329059	2.23618	0.152951	7.63056	0.320909	3.0609	0.419763	2.68955	0.586713	2.28975	0.238213	6.32661	0.454621	2.81771
0.193796	7.14341	0.0336506	2.23969	0.160032	7.56629	0.3238	3.14582	0.422338	2.83852	0.588883	2.36928	0.244139	6.39146	0.457287	2.90466
0.200401	7.03076	0.0346651	2.24403	0.16705	7.49559	0.326771	3.23437	0.425053	2.98948	0.591127	2.44769	0.250123	6.44976	0.460033	2.98941
0.206897	6.90741	0.0359509	2.24891	0.173999	7.41772	0.329827	3.32788	0.427909	3.14189	0.593444	2.5249	0.256158	6.50197	0.462858	3.07206
0.213273	6.77268	0.0375093	2.25388	0.180872	7.33206	0.332972	3.42775	0.430907	3.29525	0.595832	2.60089	0.262238	6.54854	0.465758	3.15248
0.219517	6.62599	0.0393414	2.25866	0.187661	7.23778	0.336214	3.53514	0.434049	3.44898	0.598291	2.67573	0.26836	6.58966	0.468732	3.23075
0.225619	6.46694	0.0414481	2.26297	0.194359	7.13428	0.33956	3.65112	0.437334	3.60247	0.600818	2.74939	0.274518	6.62578	0.471778	3.30689
0.231568	6.29531	0.0435582	2.26618	0.200955	7.02078	0.343018	3.7765	0.440762	3.75522	0.603414	2.82186	0.280707	6.65722	0.474894	3.38088
0.23735	6.11113	0.0456709	2.26849	0.207441	6.89647	0.346597	3.91183	0.444331	3.90667	0.606077	2.89312	0.286923	6.68405	0.478078	3.45281
0.242955	5.91483	0.0477853	2.27008	0.213806	6.76074	0.350307	4.05725	0.448042	4.05636	0.608805	2.96313	0.293162	6.70653	0.481328	3.52272
0.248372	5.70731	0.0499009	2.27109	0.220039	6.61301	0.354157	4.21237	0.45189	4.20383	0.611598	3.03195	0.299419	6.72496	0.484642	3.5906
0.25359	5.4898	0.0520172	2.27156	0.226129	6.4529	0.358156	4.37642	0.455875	4.34862	0.614455	3.09964	0.305693	6.73941	0.488019	3.65656
0.258601	5.26395	0.0541337	2.27169	0.232063	6.28019	0.362312	4.54808	0.459993	4.4904	0.617374	3.16611	0.311978	6.74999	0.491456	3.72066
0.263399	5.03192	0.0562503	2.27153	0.237831	6.09496	0.366631	4.7255	0.464242	4.62887	0.620354	3.23137	0.318271	6.75689	0.494952	3.78288
0.267978	4.79615	0.0583665	2.27105	0.243421	5.89772	0.371117	4.90668	0.468619	4.7638	0.623395	3.29546	0.324568	6.76013	0.498505	3.84337
0.272336	4.55928	0.0604821	2.27041	0.248821	5.68927	0.375774	5.08917	0.473119	4.89501	0.626495	3.35838	0.330867	6.75988	0.502113	3.90224
0.276473	4.32395	0.0625971	2.26965	0.254022	5.47097	0.380601	5.27045	0.47774	5.0223	0.629653	3.42021	0.337165	6.75614	0.505776	3.95948
0.280393	4.09271	0.0647114	2.26875	0.259015	5.24456	0.385595	5.44815	0.482478	5.14563	0.632868	3.48088	0.343457	6.74905	0.509491	4.01522
0.2841	3.86804	0.0668247	2.26779	0.263795	5.01212	0.390753	5.62007	0.487328	5.26498	0.636139	3.5404	0.348933	6.74015	0.513258	4.06957
0.287601	3.65191	0.0689371	2.26676	0.268355	4.77611	0.396067	5.78425	0.492288	5.38028	0.639465	3.59887	0.353595	6.73049	0.517075	4.12261
0.290905	3.44589	0.0710486	2.26566	0.272694	4.53927	0.401531	5.9391	0.497354	5.49157	0.642845	3.65627	0.357445	6.72115	0.52094	4.17448
0.294022	3.25124	0.073159	2.2646	0.276813	4.30417	0.407134	6.08356	0.502521	5.59893	0.646278	3.71262	0.360485	6.7129	0.524853	4.22529
0.296963	3.0687	0.0752684	2.26356	0.280715	4.07343	0.412867	6.21686	0.507787	5.70239	0.649763	3.7679	0.362717	6.70639	0.528813	4.2751
0.29974	2.89867	0.0773768	2.26245	0.284404	3.8494	0.418719	6.33864	0.513147	5.80202	0.6533	3.82222	0.364145	6.7019	0.532819	4.32413
0.302364	2.74112	0.0794842	2.26135	0.287888	3.63405	0.424678	6.44883	0.518598	5.89801	0.656886	3.87561	0.366195	6.69502	0.536871	4.37246
0.304848	2.59587	0.0815906	2.26032	0.291175	3.42899	0.430735	6.54763	0.524137	5.99046	0.660521	3.92799	0.368422	6.68726	0.540967	4.42019
0.307201	2.46248	0.0836961	2.25929	0.294277	3.23535	0.436879	6.63537	0.529761	6.0794	0.664205	3.9795	0.371446	6.67601	0.545107	4.46745
0.309436	2.34036	0.0858006	2.25827	0.297204	3.05383	0.4431	6.71255	0.535466	6.16501	0.667937	4.03015	0.375262	6.66059	0.549292	4.51443
0.311562	2.22889	0.0879041	2.25731	0.299968	2.88484	0.449387	6.77984	0.541249	6.24737	0.671715	4.07995	0.379866	6.64018	0.55352	4.56123
0.31359	2.12732	0.0900068	2.2564	0.30258	2.72839	0.455733	6.8378	0.547107	6.32663	0.675539	4.12903	0.385247	6.6139	0.557791	4.60796
0.315526	2.03493	0.0921087	2.25546	0.305052	2.58413	0.462129	6.88707	0.553038	6.4029	0.679409	4.1773	0.391394	6.58062	0.562106	4.65484
0.317381	1.95099	0.0942096	2.25459	0.307395	2.45169	0.468566	6.92827	0.559038	6.47625	0.683323	4.22485	0.397509	6.54391	0.566465	4.70187
0.319162	1.87482	0.0963098	2.25376	0.30962	2.33054	0.475039	6.96224	0.565105	6.54679	0.687281	4.27182	0.403588	6.50376	0.570867	4.74919
0.320875	1.80576	0.0984092	2.25293	0.311738	2.21994	0.480702	6.98635	0.571237	6.61462	0.691283	4.31816	0.409628	6.46007	0.575314	4.79696
0.322527	1.74315	0.100508	2.25219	0.313757	2.11916	0.485544	7.00302	0.577431	6.67983	0.695328	4.3639	0.415626	6.41277	0.579806	4.84519
0.324123	1.6864	0.102606	2.25142	0.315686	2.02749	0.489556	7.0143	0.583684	6.74251	0.699415	4.40923	0.421577	6.36195	0.584343	4.89404
0.325669	1.6351	0.104703	2.2507	0.317535	1.94427	0.492732	7.02173	0.589995	6.80266	0.703544	4.4541	0.42748	6.30757	0.588925	4.94355
0.32717	1.58867	0.1068	2.25005	0.319309	1.86871	0.495069	7.02631	0.59636	6.86035	0.707715	4.49859	0.433331	6.24954	0.593555	4.99365
0.32863	1.54663	0.108896	2.24936	0.321017	1.80017	0.496565	7.0288	0.602778	6.91567	0.711927	4.54282	0.439126	6.1879	0.598231	5.04447
0.330052	1.50863	0.110991	2.24872	0.322664	1.73814	0.498718	7.03196	0.609247	6.96867	0.71618	4.58683	0.444861	6.12273	0.602954	5.09601
0.331441	1.47429	0.113086	2.24815	0.324256	1.68189	0.501058	7.03475	0.615764	7.0193	0.720474	4.63067	0.450535	6.05396	0.607726	5.14812
0.332799	1.44335	0.115181	2.2476	0.325798	1.63099	0.504242	7.03742	0.622327	7.06761	0.724808	4.67441	0.456142	5.98168	0.612547	5.20086
0.33413	1.41544	0.117274	2.24704	0.327295	1.58492	0.508271	7.03931	0.628934	7.11362	0.729184	4.71823	0.461681	5.90602	0.617418	5.25411
0.335437	1.39024	0.119368	2.2465	0.328751	1.54325	0.513143	7.03933	0.635582	7.15729	0.7336	4.76215	0.467147	5.82699	0.622338	5.30774
0.336721	1.3676	0.12146	2.24605	0.330171	1.5056	0.518858	7.03636	0.64227	7.19871	0.738058	4.80626	0.472539	5.74474	0.627308	5.36167
0.337985	1.3473	0.123553	2.24556	0.331557	1.47158	0.525411	7.02936	0.648996	7.23774	0.742556	4.85069	0.477852	5.65942	0.632329	5.4157
0.339231	1.32904	0.125645	2.24507	0.332913	1.44087	0.531956	7.01872	0.655757	7.27437	0.747096	4.89552	0.483085	5.5712	0.6374	5.46962
0.340462	1.31273	0.127736	2.24463	0.334242	1.41318	0.53849	7.00468	0.662551	7.30864	0.751678	4.94095	0.488233	5.48028	0.642521	5.52335
0.341677	1.29821	0.129827	2.2442	0.335546	1.38824	0.545009	6.98737	0.669376	7.34043	0.756303	4.98699	0.493296	5.38689	0.647692	5.57668
0.342881	1.28526	0.131918	2.2438	0.336828	1.3658	0.55151	6.96707	0.676229	7.36966	0.760971	5.03379	0.498271	5.29127	0.652912	5.62936
0.344072	1.27381	0.134009	2.24345	0.338091	1.34565	0.557991	6.94396	0.683108	7.39632	0.765683	5.08156	0.503156	5.19365	0.658181	5.68119
0.345254	1.26372	0.136099	2.24306	0.339336	1.32759	0.564449	6.91819	0.690011	7.42034	0.77044	5.13036	0.507949	5.09438	0.663499	5.73195
0.346427	1.25489	0.138188	2.24271	0.340565	1.31146	0.570882	6.88993	0.696935	7.44159	0.775243	5.18043	0.512649	4.9937	0.668862	5.78148
0.347593	1.24719	0.140278	2.2424	0.34178	1.29706	0.577288	6.85924	0.703878	7.45991	0.780093	5.23186	0.517254	4.8919	0.673574	5.82351
0.348751	1.24051	0.142367	2.24205	0.342982	1.28425	0.583664	6.82628	0.710836	7.47531	0.784992	5.28485	0.521764	4.7894	0.677616	5.85845
0.349904	1.23483	0.144455	2.24174	0.344173	1.27291	0.590008	6.7912	0.717807	7.48765	0.789941	5.33956	0.526179	4.68645	0.680978	5.88655
0.351052	1.23008	0.146544	2.24143	0.345354	1.26291	0.596319	6.75407	0.724789	7.49674	0.794942	5.39617	0.530497	4.58329	0.683646	5.90828
0.352196	1.22613	0.148632	2.24113	0.346526	1.25418	0.602594	6.71496	0.731777	7.50246	0.799996	5.4549	0.534719	4.48034	0.685615	5.92393
0.353337	1.22293	0.15072	2.24087	0.347691	1.24659	0.608831	6.67391	0.738769	7.50468	0.805106	5.51588	0.538846	4.37785	0.686878	5.93386
0.354475	1.2204	0.152808	2.2406	0.348849	1.24001	0.61503	6.63104	0.745761	7.50332	0.810274	5.57933	0.542877	4.2761	0.688696	5.94792
0.355611	1.21858	0.154895	2.24035	0.350001	1.23442	0.621187	6.58643	0.75275	7.4982	0.815503	5.64543	0.546814	4.17535	0.690678	5.96291
0.356746	1.21734	0.156982	2.24012	0.351149	1.22971	0.627303	6.54006	0.759733	7.48912	0.820794	5.71436	0.550657	4.07583	0.693381	5.98295
0.357879	1.21663	0.159069	2.23985	0.352293	1.22582	0.633374	6.49208	0.766705	7.47608	0.826151	5.78621	0.554409	3.9778	0.696812	6.00739
0.359013	1.21644	0.161156	2.23965	0.353433	1.22267	0.6394	6.44246	0.773664	7.45902	0.831576	5.86116	0.558069	3.88144	0.70098	6.03585
0.360146	1.21673	0.163243	2.23943	0.354571	1.22022	0.645379	6.39128	0.779713	7.44083	0.837072	5.93926	0.561641	3.7869	0.705894	6.06764
0.36128	1.21745	0.165329	2.23918	0.355707	1.21844	0.651309	6.33859	0.784857	7.42285	0.842643	6.02055	0.565126	3.69429	0.711564	6.10198
0.362269	1.21838	0.167415	2.23898	0.356842	1.21726	0.65719	6.28442	0.789101	7.40616	0.848291	6.10504	0.568525	3.60382	0.717264	6.13387
0.363112	1.21942	0.169501	2.23881	0.357975	1.21659	0.66302	6.22884	0.792449	7.39188	0.854019	6.19258	0.571841	3.51563	0.722994	6.16322
0.36381	1.22052	0.171587	2.23861	0.359109	1.21644	0.668797	6.17186	0.794907	7.38092	0.85983	6.283	0.575076	3.42967	0.728749	6.19002
0.364363	1.22134	0.173673	2.23844	0.360242	1.21681	0.67452	6.1136	0.796478	7.3735	0.865727	6.37608	0.578232	3.34605	0.734528	6.2143
0.36477	1.22209	0.175758	2.23828	0.361376	1.21754	0.680189	6.05404	0.798734	7.36243	0.871711	6.47136	0.581311	3.26486	0.740329	6.23595
0.36503	1.2226	0.177843	2.23809	0.362511	1.21868	0.685801	5.99324	0.801182	7.35	0.877786	6.56846	0.584316	3.18612	0.746148	6.25502
0.365404	1.22323	0.179928	2.23789	0.363647	1.22023	0.691357	5.93134	0.804504	7.33212	0.883951	6.66685	0.587248	3.10979	0.751984	6.27152
0.365811	1.22399	0.182013	2.23775	0.364784	1.22211	0.696854	5.86832	0.808694	7.30835	0.890209	6.76579	0.590111	3.03592	0.757834	6.28544
0.366365	1.22516	0.184098	2.23761	0.365924	1.22433	0.702292	5.80425	0.813742	7.27787	0.896558	6.86472	0.592905	2.96449	0.763696	6.29683
0.367067	1.22683	0.186183	2.23746	0.367066	1.22683	0.707669	5.73925	0.819636	7.23985	0.903	6.96297	0.595635	2.89549	0.769568	6.30571
0.367917	1.22883	0.188267	2.23732	0.36821	1.22958	0.712986	5.67332	0.82636	7.19361	0.908688	7.04744	0.598301	2.82887	0.775446	6.31213
0.368916	1.23138	0.190352	2.23717	0.369357	1.23257	0.718241	5.60655	0.83304	7.14507	0.91359	7.11837	0.600906	2.76458	0.78133	6.31611
0.370064	1.23458	0.192436	2.23706	0.370507	1.23582	0.723433	5.53911	0.839674	7.09473	0.917681	7.17603	0.603452	2.70262	0.787216	6.31773
0.371216	1.23794	0.19452	2.2369	0.37166	1.23932	0.728563	5.47101	0.84626	7.04326	0.920939	7.22084	0.605942	2.64293	0.793102	6.31697
0.372371	1.24153	0.196604	2.23678	0.372816	1.24297	0.733628	5.40227	0.852798	6.99127	0.923347	7.25324	0.608377	2.5854	0.798987	6.31395
0.37353	1.24533	0.198688	2.23668	0.373976	1.24684	0.738629	5.33308	0.859288	6.93942	0.924894	7.27381	0.610759	2.53005	0.804867	6.30874
0.374692	1.24929	0.200772	2.23652	0.37514	1.25087	0.743566	5.26351	0.865729	6.88834	0.927125	7.30306	0.613091	2.47681	0.810742	6.30127
0.375857	1.25342	0.202856	2.23641	0.376307	1.25501	0.748437	5.1936	0.872123	6.83859	0.92956	7.33436	0.615375	2.42562	0.816609	6.29164
0.377027	1.25769	0.20494	2.23631	0.377478	1.25934	0.753243	5.12349	0.878472	6.79072	0.932889	7.37622	0.617611	2.37637	0.822466	6.27997
0.378201	1.26206	0.207023	2.23619	0.378654	1.26382	0.757984	5.05325	0.884777	6.74507	0.937126	7.42772	0.619803	2.32904	0.828311	6.26627
0.379379	1.26658	0.209106	2.2361	0.379833	1.26837	0.762659	4.98289	0.891041	6.70195	0.942288	7.48803	0.621951	2.28358	0.834143	6.25055
0.380561	1.27123	0.21119	2.23601	0.381017	1.27306	0.767269	4.91263	0.897266	6.66161	0.948395	7.55583	0.624058	2.23991	0.839958	6.23288
0.381748	1.276	0.213273	2.2359	0.382205	1.27786	0.771814	4.8425	0.903454	6.62404	0.95547	7.62962	0.626125	2.198	0.845757	6.21331
0.382939	1.28084	0.215356	2.23576	0.383398	1.28271	0.776293	4.77253	0.909609	6.58937	0.962612	7.69918	0.628154	2.15775	0.851536	6.19192
0.384134	1.28579	0.217439	2.2357	0.384596	1.2877	0.780707	4.7029	0.915733	6.55749	0.969817	7.76432	0.630146	2.11909	0.857295	6.16874
0.385335	1.29079	0.219522	2.23563	0.385798	1.29276	0.785056	4.63355	0.921828	6.52826	0.97708	7.82512	0.632103	2.082	0.863031	6.14385
0.38654	1.29586	0.221605	2.23548	0.387004	1.29785	0.789341	4.56463	0.927897	6.50156	0.984398	7.88178	0.634025	2.04643	0.868743	6.11724
0.387749	1.30106	0.223688	2.23541	0.388216	1.30303	0.793562	4.49627	0.933943	6.47718	0.991767	7.93436	0.635916	2.01231	0.87443	6.08895
0.388964	1.30626	0.22577	2.23534	0.389432	1.30826	0.797719	4.42843	0.939967	6.45493	0.999183	7.98306	0.637775	1.97958	0.880089	6.0591
0.390184	1.3115	0.227853	2.23527	0.390654	1.31355	0.801814	4.36122	0.945971	6.43446	1.00664	8.00647	0.639605	1.9482	0.88572	6.02769
0.391408	1.31683	0.229936	2.23519	0.39188	1.3189	0.805846	4.29462	0.951957	6.41566			0.641405	1.91811	0.891321	5.99485
0.392637	1.32217	0.232018	2.23508	0.393111	1.32425	0.809816	4.22876	0.957926	6.39823			0.643179	1.88926	0.896891	5.96056
0.393872	1.32758	0.2341	2.23503	0.394348	1.32964	0.813726	4.16372	0.963879	6.38194			0.644926	1.86162	0.902428	5.92484
0.395111	1.33304	0.236183	2.23496	0.395589	1.33511	0.817575	4.09941	0.969818	6.36662			0.646648	1.83509	0.907931	5.88784
0.396356	1.33844	0.238265	2.23486	0.396836	1.3406	0.821364	4.03594	0.975743	6.35204			0.648345	1.80971	0.913399	5.84955
0.397605	1.34392	0.240347	2.23481	0.398087	1.34605	0.825095	3.97338	0.981654	6.33801			0.65002	1.7854	0.918831	5.81009
0.39886	1.34945	0.242429	2.23474	0.399344	1.35156	0.828768	3.91173	0.987553	6.32429			0.651672	1.76208	0.924226	5.76948
0.40012	1.35496	0.244511	2.23468	0.400606	1.3571	0.832384	3.85099	0.993439	6.31084			0.653303	1.73973	0.929582	5.72776
0.401385	1.36049	0.246593	2.23461	0.401873	1.36261	0.835944	3.79118	0.999312	6.29745			0.654914	1.71833	0.934899	5.68499
0.402655	1.36601	0.248675	2.23453	0.403145	1.36815	0.839449	3.7323	1.00517	6.29072			0.656505	1.6979	0.940175	5.64127
0.40393	1.37155	0.250757	2.23446	0.404422	1.37371	0.842899	3.67445					0.658078	1.6783	0.945411	5.59667
0.405211	1.37714	0.252839	2.23439	0.405704	1.37923	0.846296	3.61762					0.659633	1.6595	0.950604	5.55123
0.406496	1.38268	0.254921	2.23439	0.406992	1.38481	0.84964	3.56173					0.66117	1.64156	0.955755	5.50496
0.407787	1.3882	0.257003	2.23431	0.408285	1.39039	0.852933	3.50684					0.662691	1.62439	0.960862	5.45802
0.409083	1.39378	0.259084	2.2342	0.409583	1.39588	0.856175	3.45299					0.664197	1.60793	0.965925	5.41045
0.410384	1.39931	0.261166	2.23419	0.410886	1.40141	0.859367	3.40017					0.665688	1.59223	0.970944	5.36224
0.41169	1.40483	0.263247	2.23414	0.412194	1.40696	0.86251	3.34831					0.667164	1.5772	0.975917	5.31353
0.413002	1.41037	0.265329	2.23408	0.413508	1.41248	0.865606	3.29748					0.668627	1.56284	0.980845	5.26434
0.414319	1.41589	0.26741	2.23401	0.414826	1.41799	0.868655	3.24767					0.670076	1.54907	0.985727	5.21477
0.41564	1.42135	0.269492	2.23395	0.41615	1.42349	0.871658	3.19886					0.671513	1.53592	0.990562	5.1649
0.416967	1.42684	0.271573	2.23395	0.417479	1.42895	0.874616	3.15101					0.672938	1.52341	0.995351	5.1147
0.418299	1.43232	0.273654	2.23387	0.418813	1.43439	0.877529	3.10416					0.674352	1.51141	1.00009	5.08952
0.419636	1.43778	0.275736	2.2338	0.420152	1.43986	0.8804	3.05833					0.675754	1.49999		
0.420978	1.44321	0.277817	2.2338	0.421496	1.4453	0.883228	3.01344					0.677147	1.48908		
0.422325	1.4486	0.279898	2.23373	0.422845	1.4507	0.886015	2.96953					0.678529	1.47864		
0.423678	1.45397	0.281979	2.23366	0.424199	1.45607	0.888762	2.92656					0.679902	1.4687		
0.425035	1.45937	0.28406	2.23366	0.425558	1.46139	0.891468	2.88449					0.681266	1.45922		
0.426397	1.4647	0.286141	2.23362	0.426922	1.46672	0.894137	2.84339					0.682621	1.45024		
0.427764	1.47001	0.288222	2.23356	0.428291	1.47206	0.896767	2.80321					0.683968	1.44164		
0.429136	1.47533	0.290303	2.2335	0.429665	1.47733	0.89936	2.76393					0.685308	1.43343		
0.430513	1.48056	0.292384	2.23347	0.431044	1.48261	0.901917	2.7255					0.686639	1.42562		
