Sym0		Asym0		Sym1		Sym2		Sym3		Asym1		Asym2		Asym3		Asym4	
469  Points		491  Points		188  Points		133  Points		119  Points		364  Points		364  Points		145  Points		116  Points	
Freq (MHz)	Vph (m/ms)	Freq (MHz)	Vph (m/ms)	Freq (MHz)	Vph (m/ms)	Freq (MHz)	Vph (m/ms)	Freq (MHz)	Vph (m/ms)	Freq (MHz)	Vph (m/ms)	Freq (MHz)	Vph (m/ms)	Freq (MHz)	Vph (m/ms)	Freq (MHz)	Vph (m/ms)
0.00522147	7.92342	0.000567032	0.25428	0.279552	389.224	0.428658	2439.71	0.559048	711.685	0.139838	234.027	0.139797	325.848	0.419298	558.175	0.698802	762.847
0.0126027	7.92279	0.00113068	0.357622	0.279738	169.546	0.428704	387.128	0.559165	325.622	0.140298	91.745	0.140185	103.023	0.419442	249.239	0.698895	378.243
0.019981	7.9215	0.00187505	0.458072	0.280071	108.487	0.428816	210.298	0.55937	211.169	0.141158	57.36	0.140973	61.4956	0.419695	160.521	0.699052	251.509
0.0273551	7.91964	0.00278897	0.555014	0.280549	79.853	0.428995	144.405	0.559662	156.303	0.142407	41.9758	0.142153	44.0906	0.420057	118.45	0.699272	188.426
0.0347231	7.91722	0.00385953	0.647927	0.28117	63.2553	0.429241	109.992	0.56004	124.114	0.144034	33.308	0.143712	34.5811	0.420528	93.9103	0.699555	150.674
0.0420833	7.91417	0.00507305	0.736459	0.281935	52.4363	0.429555	88.858	0.560506	102.958	0.146022	27.7819	0.145636	28.6263	0.421107	77.8435	0.6999	125.553
0.0494342	7.91053	0.00641525	0.820351	0.282839	44.8353	0.429938	74.5661	0.561057	87.9994	0.148353	23.9755	0.147907	24.5725	0.421795	66.5149	0.700308	107.637
0.0567738	7.90628	0.00787219	0.899491	0.283882	39.2097	0.430391	64.2609	0.561695	76.8667	0.151009	21.211	0.150506	21.6527	0.42259	58.1034	0.700779	94.2172
0.0641003	7.90137	0.00943033	0.973854	0.28506	34.8834	0.430915	56.4819	0.562419	68.2622	0.15397	19.1241	0.153413	19.4622	0.423491	51.6153	0.701312	83.7927
0.0714118	7.89583	0.0110769	1.04349	0.286371	31.4573	0.431511	50.4046	0.563227	61.4154	0.157214	17.5017	0.156607	17.7675	0.424498	46.462	0.701907	75.4633
0.0787063	7.88961	0.0128003	1.10855	0.287812	28.6803	0.432182	45.528	0.564121	55.8398	0.160723	16.2109	0.160069	16.4242	0.425609	42.2728	0.702564	68.6568
0.0859815	7.88269	0.0145898	1.16919	0.289378	26.3866	0.432927	41.5304	0.565098	51.2135	0.164475	15.1644	0.163779	15.3385	0.426824	38.8027	0.703283	62.9917
0.0932353	7.87505	0.0164359	1.22562	0.291068	24.4624	0.433751	38.1956	0.566159	47.3145	0.168454	14.3026	0.167718	14.4468	0.428141	35.8832	0.704063	58.2044
0.100465	7.86667	0.0183301	1.27807	0.292877	22.827	0.434653	35.3729	0.567303	43.9853	0.17264	13.5835	0.171868	13.7044	0.42956	33.3944	0.704904	54.1065
0.107669	7.85751	0.020265	1.32679	0.294801	21.4214	0.435638	32.9544	0.56853	41.1106	0.177017	12.9766	0.176212	13.0792	0.431078	31.2491	0.705806	50.56
0.114844	7.84752	0.0222343	1.37203	0.296837	20.2017	0.436706	30.8602	0.569838	38.6044	0.18157	12.4594	0.180734	12.5471	0.432695	29.3819	0.706768	47.4613
0.121987	7.83669	0.0242322	1.41402	0.29898	19.1343	0.437861	29.0305	0.571226	36.4009	0.186284	12.0147	0.18542	12.0904	0.43441	27.7431	0.707791	44.7313
0.129095	7.82496	0.026254	1.453	0.301228	18.1934	0.439105	27.4192	0.572695	34.4492	0.191146	11.6294	0.190256	11.6952	0.436219	26.2941	0.708872	42.3085
0.136164	7.81229	0.0280322	1.4847	0.303576	17.3584	0.440441	25.9905	0.574243	32.7092	0.196142	11.2933	0.195229	11.3508	0.438123	25.0046	0.710014	40.1443
0.143192	7.79862	0.0295581	1.51016	0.306022	16.6132	0.441871	24.716	0.575869	31.1487	0.201263	10.9981	0.200328	11.0488	0.44012	23.8503	0.711214	38.1998
0.150174	7.7839	0.0308259	1.53019	0.308561	15.9445	0.443398	23.5729	0.577573	29.742	0.206496	10.7374	0.205542	10.7823	0.442207	22.8117	0.712472	36.4437
0.157106	7.76807	0.0318318	1.54541	0.31119	15.3418	0.445025	22.5428	0.579354	28.4679	0.211833	10.506	0.210861	10.5459	0.444383	21.8727	0.713788	34.8501
0.163984	7.75107	0.0325732	1.55626	0.313908	14.7961	0.446755	21.6106	0.58121	27.3089	0.217265	10.2994	0.216276	10.3351	0.446647	21.0202	0.715162	33.398
0.170802	7.73281	0.0330484	1.56306	0.316712	14.3003	0.448591	20.7636	0.583141	26.2505	0.222782	10.1143	0.221778	10.1463	0.448997	20.2431	0.716592	32.0694
0.177556	7.71324	0.0337324	1.57264	0.319599	13.8481	0.450536	19.9915	0.585146	25.2804	0.228379	9.94758	0.227361	9.97647	0.45143	19.5324	0.718079	30.8497
0.18424	7.69227	0.0344771	1.58281	0.32257	13.4345	0.452592	19.2854	0.587224	24.3885	0.234046	9.79687	0.233016	9.82304	0.453946	18.8801	0.719622	29.7261
0.190848	7.66981	0.0354916	1.59622	0.325623	13.055	0.454762	18.638	0.589374	23.5659	0.239779	9.66009	0.238738	9.68388	0.456542	18.2798	0.721221	28.688
0.197374	7.64578	0.0367773	1.61254	0.328758	12.7061	0.457049	18.0427	0.591595	22.8051	0.24557	9.53549	0.244519	9.55719	0.459216	17.7256	0.722874	27.7263
0.20381	7.62008	0.0383355	1.63135	0.331976	12.3845	0.459454	17.4942	0.593886	22.0997	0.251415	9.42159	0.250354	9.44145	0.461967	17.2128	0.724581	26.8329
0.210149	7.59261	0.0401674	1.65222	0.335278	12.0876	0.461981	16.9878	0.596246	21.4441	0.257307	9.3171	0.256238	9.33535	0.464794	16.737	0.726342	26.001
0.216385	7.56329	0.0422738	1.67469	0.338667	11.813	0.464631	16.5193	0.598673	20.8333	0.262478	9.23287	0.261402	9.24987	0.467693	16.2948	0.728156	25.2246
0.222507	7.53202	0.0443837	1.69568	0.342144	11.5586	0.467405	16.0851	0.601168	20.2631	0.266908	9.16558	0.265828	9.1816	0.470663	15.8827	0.730023	24.4986
0.22851	7.4987	0.0464963	1.71534	0.345715	11.3229	0.470306	15.6821	0.603729	19.7298	0.270587	9.11281	0.269503	9.12809	0.473704	15.498	0.731942	23.8183
0.234383	7.46325	0.0486107	1.73375	0.349381	11.1041	0.473334	15.3075	0.606354	19.2301	0.273505	9.0728	0.272417	9.08753	0.476811	15.1383	0.733912	23.1796
0.240119	7.4256	0.0507264	1.75102	0.353149	10.9011	0.476489	14.9589	0.609044	18.7611	0.275655	9.04429	0.274566	9.05863	0.479985	14.8012	0.735933	22.579
0.245709	7.38567	0.0528429	1.76724	0.357022	10.7125	0.479773	14.6339	0.611797	18.3201	0.277033	9.02644	0.275942	9.04054	0.483224	14.4849	0.738004	22.0133
0.251145	7.34343	0.0549597	1.7825	0.361005	10.5375	0.483185	14.3307	0.614611	17.9048	0.279016	9.00128	0.277924	9.01505	0.486525	14.1876	0.740125	21.4796
0.256421	7.29884	0.0570766	1.79686	0.365103	10.3749	0.486726	14.0476	0.617487	17.5133	0.281176	8.9746	0.280082	8.98803	0.489887	13.9078	0.742294	20.9754
0.261528	7.25191	0.0591933	1.81039	0.36932	10.2241	0.490394	13.7828	0.620423	17.1435	0.284118	8.93939	0.283022	8.95236	0.493309	13.644	0.744512	20.4984
0.266463	7.20265	0.0613095	1.82316	0.37366	10.0841	0.494188	13.535	0.623417	16.7939	0.287847	8.89651	0.286748	8.90895	0.496788	13.3951	0.746778	20.0466
0.271219	7.15112	0.0634252	1.83523	0.378125	9.95432	0.498107	13.3029	0.62647	16.463	0.292367	8.84697	0.291265	8.85881	0.500324	13.1598	0.74909	19.618
0.275794	7.0974	0.0655401	1.84664	0.382718	9.83402	0.50215	13.0853	0.629581	16.1493	0.297683	8.79184	0.296579	8.80303	0.503915	12.9373	0.75145	19.211
0.280186	7.04159	0.0676542	1.85745	0.387438	9.72255	0.506315	12.8811	0.632747	15.8517	0.303799	8.73219	0.302692	8.74271	0.50756	12.7264	0.753855	18.8241
0.284396	6.98385	0.0697675	1.86769	0.392286	9.61931	0.5106	12.6893	0.635969	15.569	0.309928	8.67601	0.308819	8.68593	0.511257	12.5265	0.756305	18.456
0.288423	6.92433	0.0718798	1.87742	0.396614	9.53558	0.515002	12.5091	0.639246	15.3003	0.316067	8.62297	0.314957	8.63235	0.515005	12.3367	0.758801	18.1052
0.292272	6.86322	0.0739911	1.88665	0.400377	9.4685	0.519518	12.3395	0.642577	15.0445	0.322214	8.57274	0.321102	8.58163	0.518803	12.1564	0.76134	17.7708
0.295946	6.8007	0.0761015	1.89543	0.403539	9.41583	0.524147	12.1799	0.64596	14.8008	0.328364	8.52505	0.327251	8.5335	0.52265	11.9849	0.763924	17.4515
0.299451	6.737	0.0782108	1.90379	0.40607	9.3759	0.528885	12.0296	0.649396	14.5686	0.334515	8.47964	0.333403	8.4877	0.526544	11.8216	0.76655	17.1466
0.302792	6.67232	0.0803192	1.91176	0.407949	9.34747	0.53373	11.8879	0.652883	14.3469	0.340665	8.43629	0.339553	8.44399	0.530485	11.6661	0.769219	16.855
0.305978	6.60687	0.0824267	1.91935	0.409159	9.32967	0.538677	11.7541	0.656421	14.1353	0.346811	8.3948	0.3457	8.40217	0.534472	11.5177	0.77193	16.576
0.309015	6.54086	0.0845331	1.9266	0.410909	9.30461	0.543725	11.6279	0.660009	13.933	0.352949	8.35496	0.35184	8.36205	0.538505	11.3762	0.774683	16.3088
0.311912	6.47449	0.0866386	1.93353	0.412824	9.27808	0.54887	11.5086	0.663647	13.7395	0.359079	8.31663	0.357971	8.32346	0.542581	11.2411	0.777476	16.0528
0.314676	6.40795	0.0887433	1.94016	0.415451	9.2431	0.554109	11.3958	0.667333	13.5544	0.365195	8.27963	0.36409	8.28623	0.546701	11.112	0.780311	15.8072
0.317316	6.3414	0.090847	1.94651	0.418808	9.20064	0.559438	11.2891	0.671068	13.3771	0.371297	8.24384	0.370195	8.25023	0.550865	10.9885	0.783185	15.5716
0.319841	6.27501	0.0929498	1.95258	0.422919	9.15179	0.564855	11.1881	0.67485	13.2072	0.377382	8.20912	0.376283	8.21533	0.555071	10.8704	0.786099	15.3452
0.322257	6.20892	0.0950519	1.95841	0.427807	9.09774	0.570356	11.0923	0.67868	13.0443	0.383447	8.17536	0.382352	8.1814	0.559319	10.7573	0.789053	15.1278
0.324572	6.14326	0.0971531	1.964	0.4335	9.0397	0.575938	11.0015	0.682556	12.888	0.389489	8.14244	0.388398	8.14833	0.563609	10.649	0.792046	14.9187
0.326794	6.07813	0.0992535	1.96937	0.439275	8.98554	0.581597	10.9154	0.686479	12.738	0.395506	8.11026	0.39442	8.11603	0.567941	10.5452	0.795077	14.7175
0.32893	6.01364	0.101353	1.97453	0.445124	8.9349	0.587331	10.8336	0.690448	12.5939	0.401496	8.07874	0.400415	8.0844	0.572314	10.4457	0.798146	14.5238
0.330985	5.94987	0.103452	1.97949	0.451039	8.88743	0.593136	10.7558	0.694463	12.4555	0.407455	8.04778	0.40638	8.05334	0.576728	10.3503	0.801253	14.3373
0.332967	5.88689	0.105551	1.98427	0.457015	8.84283	0.59901	10.6818	0.698524	12.3224	0.413382	8.0173	0.412313	8.02278	0.581184	10.2587	0.804397	14.1575
0.33488	5.82477	0.107648	1.98887	0.463044	8.80083	0.604948	10.6114	0.702631	12.1945	0.419273	7.98723	0.418211	7.99264	0.585682	10.1708	0.807579	13.9842
0.33673	5.76355	0.109745	1.9933	0.469119	8.76115	0.610949	10.5444	0.706784	12.0713	0.425127	7.95751	0.424071	7.96286	0.59022	10.0864	0.810798	13.817
0.338522	5.70327	0.111842	1.99757	0.475235	8.72358	0.617008	10.4804	0.710982	11.9528	0.43094	7.92805	0.429892	7.93336	0.5948	10.0054	0.814053	13.6557
0.34026	5.64396	0.113937	2.0017	0.481385	8.68789	0.623123	10.4194	0.715226	11.8388	0.43671	7.89881	0.435669	7.90409	0.598825	9.93738	0.817345	13.4999
0.341949	5.58565	0.116033	2.00568	0.487565	8.6539	0.629291	10.3611	0.719517	11.7289	0.442434	7.86973	0.441402	7.87498	0.602281	9.88124	0.820672	13.3494
0.343592	5.52836	0.118128	2.00952	0.493768	8.62144	0.635508	10.3054	0.723855	11.6231	0.44811	7.84075	0.447087	7.84599	0.605157	9.83606	0.824036	13.204
0.345194	5.4721	0.120222	2.01324	0.499992	8.59036	0.641772	10.2521	0.728239	11.5211	0.453736	7.81183	0.452722	7.81706	0.607442	9.8011	0.827435	13.0635
0.346757	5.41687	0.122316	2.01684	0.50623	8.56051	0.648079	10.201	0.732672	11.4229	0.459308	7.78293	0.458304	7.78816	0.609128	9.77582	0.83087	12.9275
0.348285	5.36269	0.124409	2.02031	0.512479	8.53177	0.654426	10.152	0.737153	11.3282	0.464825	7.75399	0.463831	7.75923	0.61021	9.75983	0.83434	12.796
0.34978	5.30954	0.126502	2.02368	0.518736	8.50402	0.660809	10.105	0.741683	11.2369	0.470283	7.72499	0.4693	7.73024	0.611769	9.7371	0.837845	12.6688
0.351245	5.25743	0.128594	2.02694	0.524996	8.47717	0.667226	10.0598	0.746265	11.1489	0.475681	7.69588	0.47471	7.70115	0.613469	9.71271	0.841384	12.5455
0.352683	5.20634	0.130686	2.03011	0.531257	8.45113	0.672842	10.0218	0.750898	11.0642	0.481017	7.66664	0.480057	7.67194	0.61579	9.6801	0.844959	12.4262
0.354096	5.15628	0.132778	2.03317	0.537515	8.4258	0.677646	9.99035	0.755584	10.9824	0.486288	7.63724	0.48534	7.64257	0.618739	9.63973	0.848568	12.3106
0.355485	5.10722	0.134869	2.03614	0.543768	8.40112	0.681629	9.96499	0.760325	10.9037	0.491492	7.60765	0.490556	7.61301	0.622326	9.59219	0.852211	12.1986
0.356854	5.05916	0.13696	2.03903	0.550013	8.37702	0.684784	9.94532	0.765123	10.8278	0.496627	7.57785	0.495703	7.58325	0.626564	9.53815	0.855888	12.09
0.358203	5.01209	0.13905	2.04183	0.556247	8.35344	0.687107	9.93106	0.76998	10.7548	0.501691	7.54782	0.500781	7.55327	0.631467	9.47835	0.859599	11.9847
0.359534	4.96598	0.14114	2.04455	0.562469	8.33031	0.688595	9.92203	0.774897	10.6844	0.506684	7.51755	0.505786	7.52305	0.636412	9.42082	0.863343	11.8825
0.36085	4.92082	0.14323	2.04719	0.568676	8.3076	0.690736	9.90916	0.779877	10.6167	0.511602	7.48703	0.510718	7.49257	0.641398	9.36547	0.867122	11.7834
0.36215	4.8766	0.14532	2.04976	0.574865	8.28525	0.693064	9.89533	0.784923	10.5515	0.516445	7.45624	0.515575	7.46183	0.646426	9.3122	0.870933	11.6872
0.363437	4.83329	0.147409	2.05226	0.581036	8.26323	0.696235	9.87678	0.790038	10.4889	0.521212	7.42518	0.520355	7.43082	0.651495	9.26093	0.874777	11.5939
0.364712	4.79088	0.149498	2.0547	0.587186	8.24149	0.700249	9.85373	0.795224	10.4288	0.525901	7.39384	0.525058	7.39953	0.656605	9.21157	0.878654	11.5032
0.365976	4.74936	0.151587	2.05706	0.593313	8.22	0.705109	9.82641	0.800484	10.371	0.530512	7.36223	0.529684	7.36797	0.661755	9.16403	0.882564	11.4152
0.36723	4.7087	0.153675	2.05936	0.599416	8.19872	0.710815	9.7951	0.80513	10.3227	0.535044	7.33035	0.53423	7.33613	0.666945	9.11825	0.886506	11.3296
0.368475	4.66889	0.155763	2.06161	0.605494	8.17764	0.717368	9.76009	0.809139	10.2828	0.539496	7.29819	0.538697	7.30402	0.672173	9.07415	0.89048	11.2465
0.369712	4.62991	0.157851	2.06379	0.611544	8.15671	0.72392	9.72596	0.812488	10.2508	0.543869	7.26577	0.543084	7.27165	0.677439	9.03164	0.894485	11.1657
0.370942	4.59174	0.159939	2.06592	0.617566	8.13592	0.730469	9.69261	0.815159	10.2261	0.548162	7.23309	0.547391	7.23902	0.682741	8.99066	0.898522	11.0871
0.372009	4.55912	0.162027	2.068	0.623557	8.11525	0.737009	9.65997	0.817135	10.2083	0.552375	7.20017	0.551619	7.20614	0.68808	8.95113	0.902591	11.0108
0.372915	4.53178	0.164114	2.07002	0.629517	8.09466	0.743537	9.62795	0.818406	10.1971	0.556509	7.16701	0.555767	7.17302	0.693452	8.913	0.90669	10.9365
0.373661	4.50949	0.166201	2.072	0.635444	8.07415	0.750047	9.59647	0.820241	10.1811	0.560564	7.13363	0.559836	7.13969	0.698858	8.87618	0.910819	10.8642
0.374251	4.49207	0.168288	2.07393	0.641337	8.05368	0.756535	9.56546	0.822246	10.164	0.56454	7.10005	0.563827	7.10614	0.704295	8.84063	0.914979	10.7938
0.374683	4.47937	0.170374	2.07581	0.647195	8.03326	0.762996	9.53484	0.824991	10.1412	0.568439	7.06628	0.567739	7.0724	0.709763	8.80626	0.919169	10.7254
0.37496	4.47129	0.172461	2.07764	0.653017	8.01285	0.769428	9.50455	0.828493	10.1131	0.57226	7.03234	0.571575	7.03849	0.715258	8.77304	0.923388	10.6587
0.375357	4.45975	0.174547	2.07944	0.658801	7.99245	0.775825	9.47453	0.832774	10.0802	0.576006	6.99824	0.575334	7.00442	0.720781	8.74089	0.927088	10.6021
0.375788	4.44729	0.176633	2.08119	0.664546	7.97204	0.782185	9.44473	0.837861	10.0431	0.579676	6.96401	0.579018	6.97021	0.726329	8.70976	0.93026	10.5548
0.376374	4.4305	0.178719	2.0829	0.670251	7.95161	0.788504	9.41511	0.843787	10.0024	0.583273	6.92966	0.582628	6.93588	0.731901	8.6796	0.932895	10.5164
0.377114	4.4095	0.180805	2.08458	0.675916	7.93114	0.79478	9.38564	0.849808	9.96371	0.586798	6.89521	0.586166	6.90144	0.737494	8.65035	0.934986	10.4865
0.378007	4.38445	0.182891	2.08621	0.681538	7.91063	0.801011	9.35628	0.855924	9.92698	0.590251	6.86067	0.589632	6.86692	0.743107	8.62197	0.936528	10.4647
0.379052	4.35557	0.184976	2.08781	0.687118	7.89007	0.807196	9.32702	0.862135	9.89213	0.593634	6.82608	0.593027	6.83234	0.748738	8.5944	0.937516	10.4509
0.38025	4.32305	0.187062	2.08938	0.692653	7.86945	0.813334	9.29785	0.86844	9.85908	0.596949	6.79144	0.596355	6.79771	0.754386	8.5676	0.93894	10.4312
0.381446	4.29119	0.189147	2.09091	0.698144	7.84875	0.819426	9.26877	0.874838	9.82776	0.600198	6.75677	0.599615	6.76304	0.760048	8.54152	0.940491	10.4099
0.382641	4.25998	0.191232	2.09241	0.703589	7.82797	0.825472	9.23978	0.881326	9.79809	0.603381	6.7221	0.60281	6.72837	0.765722	8.51612	0.942606	10.3813
0.383835	4.2294	0.193317	2.09388	0.708988	7.80711	0.831473	9.2109	0.887902	9.77	0.6065	6.68743	0.60594	6.6937	0.771408	8.49137	0.945289	10.3457
0.385028	4.19944	0.195402	2.09531	0.71434	7.78616	0.837433	9.18214	0.894562	9.74339	0.609557	6.6528	0.609008	6.65906	0.777102	8.46721	0.948549	10.3033
0.386221	4.17008	0.197486	2.09672	0.719643	7.7651	0.843352	9.15353	0.901303	9.7182	0.612553	6.6182	0.612015	6.62445	0.782804	8.44362	0.952392	10.2546
0.387415	4.1413	0.199571	2.0981	0.724897	7.74395	0.849233	9.1251	0.908121	9.69432	0.61549	6.58366	0.614963	6.5899	0.788511	8.42056	0.956826	10.2
0.388608	4.1131	0.201655	2.09945	0.730102	7.72269	0.85508	9.09685	0.915012	9.67169	0.61837	6.54919	0.617853	6.55542	0.794223	8.39799	0.961287	10.1468
0.389803	4.08545	0.20374	2.10077	0.735258	7.70132	0.860896	9.06883	0.921972	9.65023	0.621193	6.51481	0.620687	6.52102	0.799936	8.37589	0.965774	10.0949
0.390998	4.05835	0.205824	2.10207	0.740362	7.67984	0.866683	9.04106	0.928998	9.62985	0.623963	6.48053	0.623466	6.48673	0.805649	8.35421	0.970287	10.0443
0.392195	4.03179	0.207908	2.10334	0.745415	7.65824	0.872444	9.01355	0.936084	9.61049	0.626679	6.44637	0.626192	6.45254	0.811362	8.33294	0.974825	9.99484
0.393394	4.00574	0.209992	2.10458	0.750417	7.63653	0.878183	8.98634	0.943228	9.59208	0.629344	6.41233	0.628866	6.41847	0.817071	8.31204	0.979388	9.94661
0.394594	3.9802	0.212076	2.10581	0.755366	7.6147	0.883902	8.95945	0.950425	9.57456	0.63196	6.37843	0.63149	6.38455	0.822776	8.29149	0.983976	9.89953
0.395796	3.95516	0.21416	2.107	0.760264	7.59276	0.889604	8.93288	0.957671	9.55785	0.634527	6.34467	0.634066	6.35077	0.828475	8.27126	0.988588	9.85357
0.397	3.9306	0.216243	2.10818	0.765108	7.5707	0.895291	8.90666	0.964964	9.54191	0.637047	6.31108	0.636595	6.31714	0.834166	8.25133	0.993224	9.80869
0.398207	3.90651	0.218327	2.10933	0.7699	7.54852	0.900966	8.8808	0.9723	9.52668	0.639522	6.27765	0.639077	6.28368	0.839849	8.23168	0.997884	9.76486
0.399416	3.88288	0.220411	2.11047	0.774638	7.52623	0.90663	8.85531	0.979676	9.51211	0.641952	6.2444	0.641516	6.2504	0.845521	8.21228	1.00257	9.72205
0.400628	3.8597	0.222494	2.11158	0.779324	7.50382	0.912285	8.83019	0.987088	9.49816	0.64434	6.21134	0.643911	6.2173	0.851181	8.19311		
0.401843	3.83696	0.224577	2.11267	0.783956	7.48131	0.917934	8.80545	0.994535	9.48478	0.646687	6.17847	0.646265	6.1844	0.856827	8.17416		
0.40306	3.81466	0.226661	2.11374	0.788534	7.45869	0.923576	8.7811	1.00201	9.47194	0.648993	6.1458	0.648579	6.15169	0.86246	8.1554		
0.404281	3.79276	0.228744	2.11479	0.79306	7.43596	0.929214	8.75713			0.651261	6.11334	0.650854	6.11919	0.868076	8.13682		
0.405505	3.77128	0.230827	2.11583	0.797532	7.41313	0.934849	8.73355			0.653492	6.08109	0.653091	6.08691	0.873675	8.1184		
0.406732	3.7502	0.23291	2.11684	0.80195	7.3902	0.940481	8.71035			0.655686	6.04906	0.655292	6.05484	0.879255	8.10013		
0.407963	3.72951	0.234993	2.11784	0.806316	7.36718	0.946111	8.68753			0.657845	6.01726	0.657457	6.023	0.884816	8.08199		
0.409197	3.7092	0.237076	2.11882	0.810629	7.34407	0.95174	8.66508			0.65997	5.98569	0.659588	5.99138	0.890357	8.06397		
0.410435	3.68927	0.239159	2.11978	0.81489	7.32088	0.957367	8.643			0.662063	5.95435	0.661686	5.96	0.895875	8.04605		
0.411677	3.66969	0.241241	2.12073	0.819098	7.2976	0.962993	8.62128			0.664123	5.92325	0.663753	5.92886	0.90137	8.02823		
0.412922	3.65048	0.243324	2.12166	0.823254	7.27425	0.968619	8.59991			0.666153	5.89239	0.665788	5.89795	0.906841	8.01048		
0.414171	3.63161	0.245407	2.12258	0.827359	7.25083	0.974244	8.57889			0.668153	5.86178	0.667794	5.86729	0.912287	7.99281		
0.415424	3.61308	0.247489	2.12348	0.831413	7.22734	0.979868	8.55819			0.670125	5.83141	0.669771	5.83688	0.917707	7.97519		
0.416681	3.59488	0.249572	2.12436	0.835415	7.20379	0.985491	8.53783			0.672069	5.80129	0.67172	5.80672	0.9231	7.95763		
0.417942	3.57701	0.251654	2.12524	0.839368	7.18019	0.991112	8.51778			0.673987	5.77143	0.673642	5.77681	0.928464	7.9401		
0.419208	3.55945	0.253736	2.12609	0.843271	7.15653	0.996732	8.49803			0.675878	5.74182	0.675538	5.74715	0.9338	7.92261		
