Sym0		Asym0		Sym1		Sym2		Sym3		Sym4		Sym5		Asym1		Asym2		Asym3		Asym4		Asym5	
390  Points		394  Points		390  Points		388  Points		371  Points		362  Points		158  Points		394  Points		380  Points		370  Points		356  Points		171  Points	
Freq (MHz)	Vph (m/ms)	Freq (MHz)	Vph (m/ms)	Freq (MHz)	Vph (m/ms)	Freq (MHz)	Vph (m/ms)	Freq (MHz)	Vph (m/ms)	Freq (MHz)	Vph (m/ms)	Freq (MHz)	Vph (m/ms)	Freq (MHz)	Vph (m/ms)	Freq (MHz)	Vph (m/ms)	Freq (MHz)	Vph (m/ms)	Freq (MHz)	Vph (m/ms)	Freq (MHz)	Vph (m/ms)
2.20165	2.48456	0.346175	275.508	2.20146	2.48461	0.692261	524.735	1.15355	1805.41	1.38447	1083.07	1.92259	4192.16	0.346137	422.628	0.768997	416.86	1.03839	577.7	1.53801	789.431	1.73055	20448
2.19687	2.48563	0.346638	97.2638	2.19667	2.48568	0.692538	190.958	1.15344	391.483	1.3847	386.175	1.92243	695.018	0.346516	110.835	0.76883	185.165	1.03867	253.034	1.53778	361.349	1.73067	723.518
2.19209	2.48672	0.347539	59.1931	2.19189	2.48676	0.693071	116.796	1.15319	219.499	1.38514	235.045	1.92203	378.845	0.347335	63.9212	0.768538	118.977	1.03916	162.059	1.53737	234.246	1.73104	368.352
2.1873	2.4878	0.348873	42.6564	2.18711	2.48785	0.693857	84.1912	1.1528	152.464	1.38579	168.989	1.92141	260.326	0.348587	45.0301	0.768122	87.616	1.03986	119.255	1.53679	173.248	1.73164	247.136
2.18251	2.48889	0.350627	33.4374	2.18232	2.48893	0.694892	65.8738	1.15228	116.763	1.38665	131.963	1.92058	198.239	0.350263	34.8569	0.767588	69.3125	1.04077	94.3838	1.53605	137.419	1.73247	186.003
2.17768	2.48993	0.352788	27.5756	2.17749	2.48997	0.696169	54.1503	1.15162	94.5822	1.38771	108.285	1.91953	160.02	0.352348	28.5164	0.766942	57.3127	1.04189	78.135	1.53515	113.839	1.73352	149.164
2.17277	2.49089	0.35534	23.5311	2.17257	2.49092	0.697682	46.0102	1.15085	79.4604	1.38896	91.8464	1.91829	134.118	0.354827	24.1982	0.76619	48.8358	1.0432	66.6927	1.53411	97.1408	1.73479	124.545
2.16767	2.49163	0.358265	20.5802	2.16746	2.49165	0.699422	40.0332	1.14996	68.4878	1.3904	79.7705	1.91688	115.402	0.357683	21.0764	0.765341	42.5272	1.04469	58.2027	1.53293	84.6921	1.73626	106.937
2.16225	2.49201	0.361541	18.3378	2.16202	2.49202	0.701379	35.4618	1.14896	60.1611	1.39203	70.5273	1.91529	101.243	0.360894	18.7203	0.764404	37.6481	1.04637	51.6559	1.53163	75.0524	1.73794	93.7207
2.15649	2.492	0.365148	16.5803	2.15625	2.49199	0.703542	31.8549	1.14787	53.625	1.39382	63.2267	1.91356	90.1554	0.36444	16.8835	0.763388	33.7614	1.04823	46.4557	1.53021	67.3661	1.7398	83.4387
2.15051	2.49173	0.369063	15.1688	2.15027	2.49172	0.705901	28.9384	1.14669	48.3572	1.39578	57.3162	1.9117	81.2364	0.368298	15.4145	0.762305	30.5917	1.05024	42.227	1.52869	61.0933	1.74183	75.2132
2.14442	2.49134	0.373262	14.0125	2.14418	2.49132	0.708445	26.5329	1.14543	44.0207	1.39789	52.4346	1.90972	73.9057	0.372445	14.2153	0.761166	27.9572	1.05242	38.7219	1.52708	55.8764	1.74403	68.4847
2.13828	2.49088	0.377723	13.0496	2.13803	2.49086	0.71116	24.516	1.14411	40.3883	1.40014	48.3356	1.90764	67.7734	0.376859	13.2195	0.759984	25.733	1.05473	35.7703	1.52539	51.4692	1.74638	62.8797
2.13211	2.49038	0.382422	12.2365	2.13186	2.49036	0.714033	22.8014	1.14273	37.3014	1.40252	44.8457	1.90548	62.5675	0.381514	12.3807	0.758772	23.8301	1.05718	33.2514	1.52364	47.6967	1.74887	58.1392
2.12592	2.48987	0.387335	11.5416	2.12567	2.48985	0.717053	21.3264	1.14131	34.6456	1.40503	41.8389	1.90324	58.0927	0.386388	11.6654	0.757542	22.1839	1.05975	31.0769	1.52184	44.431	1.75149	54.0782
2.11973	2.48934	0.392439	10.9414	2.11948	2.48932	0.720206	20.0446	1.13986	32.3366	1.40764	39.2219	1.90095	54.2052	0.391458	11.0488	0.756309	20.746	1.06244	29.1812	1.52	41.5764	1.75423	50.5607
2.11352	2.4888	0.397712	10.4182	2.11327	2.48878	0.723477	18.9206	1.13839	30.3108	1.41036	36.9238	1.89862	50.7965	0.3967	10.5121	0.755087	19.4795	1.06523	27.5141	1.51813	39.06	1.75708	47.4847
2.10732	2.48825	0.403129	9.95818	2.10707	2.48823	0.726855	17.9271	1.13691	28.5193	1.41317	34.8897	1.89626	47.7835	0.402092	10.0411	0.753891	18.356	1.06811	26.0367	1.51624	36.8253	1.76001	44.7723
2.10111	2.4877	0.408669	9.55067	2.10086	2.48768	0.730325	17.0428	1.13544	26.9241	1.41606	33.0767	1.89388	45.1011	0.407611	9.62432	0.752737	17.353	1.07107	24.7185	1.51435	34.8276	1.76304	42.3626
2.09491	2.48715	0.41431	9.18709	2.09466	2.48713	0.733874	16.2506	1.13399	25.4947	1.41902	31.4508	1.89149	42.6981	0.413234	9.25299	0.75164	16.4526	1.0741	23.5352	1.51247	33.0314	1.76614	40.2078
2.08871	2.4866	0.42003	8.86057	2.08846	2.48658	0.737488	15.5368	1.13256	24.2069	1.42205	29.9844	1.88911	40.5331	0.41894	8.9199	0.750616	15.6402	1.07719	22.467	1.5106	31.4079	1.7693	38.2695
2.0825	2.48604	0.425806	8.56549	2.08225	2.48602	0.741154	14.8902	1.13118	23.041	1.42512	28.6551	1.88674	38.5726	0.423963	8.65626	0.749683	14.9042	1.08033	21.4979	1.50876	29.9336	1.77251	36.5166
2.0763	2.48549	0.431617	8.29727	2.07605	2.48547	0.744859	14.3017	1.12985	21.9808	1.42824	27.4445	1.88439	36.7893	0.428271	8.44854	0.748857	14.2348	1.08351	20.6146	1.50695	28.589	1.77578	34.9237
2.0701	2.48493	0.437442	8.05208	2.06986	2.48491	0.748589	13.7635	1.12858	21.0129	1.43139	26.3373	1.88208	35.1603	0.431844	8.28731	0.748155	13.6239	1.08671	19.8061	1.5052	27.3581	1.77908	33.4698
2.06391	2.48438	0.443258	7.82672	2.06366	2.48435	0.752332	13.2694	1.1274	20.1262	1.43456	25.3207	1.87982	33.6667	0.434673	8.16597	0.747597	13.0648	1.08994	19.0632	1.5035	26.2274	1.7824	32.1373
2.05772	2.48382	0.449045	7.6185	2.05747	2.4838	0.756073	12.8139	1.12629	19.311	1.43775	24.3839	1.8776	32.2925	0.436754	8.07996	0.7472	12.5517	1.09317	18.3781	1.50187	25.1852	1.78575	30.9116
2.05153	2.48327	0.45478	7.42512	2.05128	2.48325	0.759801	12.3925	1.12529	18.5596	1.44095	23.5179	1.87544	31.0242	0.438085	8.02628	0.746984	12.0799	1.09641	17.7442	1.50032	24.2219	1.78911	29.7803
2.04534	2.48272	0.460442	7.24464	2.0451	2.48269	0.763503	12.0012	1.1244	17.865	1.44415	22.7147	1.87335	29.8503	0.439998	7.95088	0.746966	11.6451	1.09963	17.1557	1.49885	23.3291	1.79247	28.7328
2.03916	2.48217	0.466009	7.07537	2.03891	2.48214	0.767165	11.6367	1.12363	17.2214	1.44734	21.9676	1.87134	28.7607	0.442074	7.87119	0.747167	11.2437	1.10283	16.6078	1.49747	22.4996	1.79584	27.7599
2.03299	2.48162	0.471461	6.91586	2.03274	2.48159	0.770776	11.2961	1.12299	16.6238	1.45051	21.2708	1.8694	27.747	0.444893	7.76641	0.747605	10.8728	1.10601	16.0963	1.49619	21.7272	1.79919	26.8539
2.02681	2.48107	0.476777	6.76486	2.02656	2.48105	0.774324	10.9769	1.1225	16.0677	1.45366	20.6193	1.86755	26.8017	0.448446	7.6394	0.748299	10.5295	1.10914	15.6175	1.49503	21.0064	1.80252	26.008
2.02064	2.48052	0.481936	6.62129	2.02039	2.4805	0.777798	10.6769	1.12216	15.5492	1.45678	20.0087	1.8658	25.9183	0.452717	7.49335	0.749267	10.2116	1.11224	15.1682	1.49398	20.3325	1.80583	25.2162
2.01448	2.47998	0.48692	6.48421	2.01423	2.47996	0.781185	10.3942	1.12198	15.0651	1.45986	19.435	1.86415	25.0911	0.45768	7.3315	0.750526	9.91692	1.11527	14.7456	1.49306	19.7013	1.80911	24.4735
2.00832	2.47944	0.491711	6.35281	2.00807	2.47942	0.784475	10.1271	1.12198	14.6124	1.4629	18.895	1.86261	24.3152	0.463296	7.15694	0.752094	9.64361	1.11825	14.3472	1.49227	19.1091	1.81236	23.7753
2.00216	2.4789	0.496292	6.22638	2.00192	2.47888	0.787658	9.87403	1.12216	14.1883	1.46588	18.3856	1.86118	23.586	0.468807	6.99282	0.753983	9.39002	1.12115	13.9709	1.49162	18.5525	1.81556	23.1176
1.99601	2.47837	0.50065	6.10435	1.99577	2.47835	0.790725	9.63381	1.12253	13.7906	1.46881	17.9042	1.85987	22.8998	0.474192	6.8378	0.756206	9.15464	1.12398	13.6147	1.49111	18.0289	1.81872	22.4968
1.98987	2.47784	0.504773	5.9862	1.98962	2.47782	0.793666	9.40524	1.12309	13.4173	1.47167	17.4483	1.85868	22.253	0.479431	6.69072	0.758774	8.93612	1.12672	13.2768	1.49076	17.5354	1.82182	21.9098
1.98373	2.47731	0.50865	5.87151	1.98348	2.47729	0.796473	9.1873	1.12387	13.0663	1.47446	17.0159	1.85762	21.6425	0.484503	6.55057	0.761299	8.75845	1.12937	12.9558	1.49056	17.0698	1.82486	21.3539
1.9776	2.47679	0.512276	5.75995	1.97735	2.47677	0.79914	8.97907	1.12485	12.736	1.47718	16.6051	1.8567	21.0655	0.48939	6.41648	0.763665	8.61577	1.13193	12.6503	1.49053	16.6299	1.82784	20.8264
1.97147	2.47627	0.515647	5.65124	1.97122	2.47625	0.801344	8.80491	1.12604	12.425	1.47982	16.2143	1.85592	20.5194	0.494076	6.2877	0.765771	8.50355	1.13439	12.3591	1.49066	16.214	1.83076	20.3252
1.96535	2.47576	0.518762	5.54515	1.9651	2.47574	0.803132	8.66143	1.12746	12.1317	1.48238	15.8418	1.85528	20.0021	0.498545	6.16358	0.767532	8.41833	1.13675	12.0811	1.49096	15.8202	1.8336	19.8483
1.95923	2.47525	0.521623	5.44153	1.95898	2.47523	0.804545	8.54604	1.1291	11.855	1.48485	15.4863	1.85479	19.5114	0.502784	6.04359	0.768881	8.35759	1.139	11.8152	1.49143	15.447	1.83636	19.3938
1.95312	2.47474	0.524237	5.34025	1.95288	2.47472	0.805621	8.45679	1.13096	11.5937	1.48723	15.1466	1.85444	19.0455	0.506783	5.92725	0.769768	8.31953	1.14113	11.5607	1.49208	15.093	1.83904	18.9601
1.94702	2.47424	0.52661	5.24123	1.94677	2.47422	0.806389	8.39225	1.13305	11.3467	1.48952	14.8216	1.85425	18.6026	0.510532	5.8142	0.771076	8.26594	1.14316	11.3167	1.49291	14.757	1.84164	18.5457
1.94092	2.47375	0.528753	5.14441	1.94068	2.47373	0.806869	8.35141	1.13536	11.1131	1.49171	14.5103	1.85421	18.1814	0.514028	5.70412	0.772541	8.20912	1.14507	11.0824	1.49391	14.4376	1.84415	18.1493
1.93483	2.47326	0.530677	5.04977	1.93459	2.47324	0.807545	8.29332	1.13789	10.8919	1.49381	14.2117	1.85433	17.7803	0.517268	5.59677	0.774606	8.13419	1.14687	10.8574	1.49509	14.1338	1.84658	17.7697
1.92875	2.47278	0.532397	4.95729	1.92851	2.47276	0.808259	8.23101	1.14064	10.6823	1.49581	13.925	1.8546	17.398	0.520254	5.49196	0.777335	8.04314	1.14855	10.6409	1.49645	13.8446	1.84891	17.4057
1.92268	2.47231	0.533926	4.86696	1.92243	2.47229	0.809198	8.14758	1.14361	10.4835	1.49771	13.6496	1.85504	17.0333	0.522988	5.38955	0.780809	7.93829	1.15012	10.4324	1.49798	13.5692	1.85116	17.0563
1.91661	2.47184	0.53528	4.7788	1.91637	2.47182	0.810331	8.04418	1.14678	10.2948	1.49952	13.3846	1.85562	16.6852	0.525477	5.28943	0.785121	7.82223	1.15159	10.2316	1.49968	13.3065	1.85331	16.7206
1.91055	2.47138	0.536476	4.6928	1.91031	2.47137	0.811619	7.92216	1.15016	10.1156	1.50123	13.1294	1.85637	16.3527	0.527732	5.19154	0.790375	7.69762	1.15295	10.0379	1.50156	13.0558	1.85536	16.3978
1.9045	2.47093	0.537528	4.60897	1.90426	2.47091	0.813015	7.78304	1.15373	9.94516	1.50285	12.8836	1.85727	16.0347	0.529761	5.09584	0.795943	7.58147	1.15421	9.85094	1.5036	12.8165	1.85733	16.0871
1.89846	2.47049	0.538452	4.52733	1.89822	2.47047	0.814466	7.62843	1.15748	9.78296	1.50438	12.6466	1.85832	15.7304	0.531579	5.0023	0.80181	7.4731	1.15537	9.67044	1.5058	12.5877	1.8592	15.7878
1.89243	2.47006	0.539263	4.44786	1.89219	2.47004	0.815758	7.47889	1.16142	9.62844	1.50582	12.4178	1.85952	15.439	0.5332	4.91092	0.807957	7.37187	1.15645	9.49606	1.50816	12.3688	1.86098	15.4993
1.88641	2.46963	0.539978	4.37057	1.88616	2.46962	0.816893	7.33415	1.16552	9.48107	1.50718	12.197	1.86087	15.1598	0.534638	4.8217	0.814369	7.27716	1.15745	9.32752	1.51067	12.1593	1.86268	15.2209
1.88039	2.46922	0.540609	4.29546	1.88015	2.4692	0.817875	7.19394	1.16978	9.3404	1.50847	11.9836	1.86237	14.892	0.535909	4.73463	0.821027	7.18844	1.15837	9.16456	1.51332	11.9585	1.86429	14.9521
1.87439	2.46881	0.54117	4.2225	1.87415	2.4688	0.818709	7.05803	1.17418	9.20595	1.50968	11.7774	1.864	14.635	0.537029	4.64974	0.82791	7.10517	1.15913	9.02693	1.51611	11.766	1.86582	14.6925
1.8684	2.46842	0.541674	4.15169	1.86815	2.46841	0.8194	6.92621	1.17872	9.07732	1.51083	11.5779	1.86576	14.3882	0.538014	4.56703	0.835002	7.02688	1.15974	8.91273	1.51902	11.5812	1.86727	14.4415
1.86241	2.46804	0.542132	4.083	1.86217	2.46803	0.819955	6.79831	1.18277	8.96966	1.51192	11.385	1.86766	14.151	0.538879	4.4865	0.842282	6.95313	1.16023	8.82039	1.52206	11.4038	1.86864	14.1987
1.85644	2.46767	0.542504	4.02485	1.8562	2.46766	0.820379	6.67414	1.1863	8.88094	1.51297	11.1983	1.86967	13.9229	0.539639	4.40814	0.849732	6.88352	1.1606	8.74871	1.52521	11.2332	1.86995	13.9639
1.85048	2.46732	0.542806	3.97652	1.85024	2.4673	0.820679	6.55356	1.18925	8.8096	1.51398	11.0176	1.8718	13.7033	0.540309	4.33197	0.857332	6.81765	1.16087	8.69673	1.52846	11.069	1.8712	13.7365
1.84453	2.46697	0.543048	3.93741	1.84429	2.46696	0.820863	6.43643	1.19162	8.75443	1.51495	10.8426	1.87404	13.4918	0.540903	4.25795	0.865064	6.75518	1.16105	8.66379	1.5318	10.9109	1.87239	13.5163
1.83859	2.46664	0.543236	3.90702	1.83835	2.46663	0.820937	6.32263	1.19337	8.71453	1.51591	10.6732	1.87638	13.2879	0.541433	4.18609	0.872908	6.69579	1.16129	8.61687	1.53522	10.7585	1.87353	13.3029
1.83266	2.46633	0.543373	3.88498	1.83243	2.46631	0.82091	6.21203	1.1945	8.68929	1.51685	10.5091	1.87882	13.0912	0.541913	4.11637	0.880845	6.63916	1.16156	8.56646	1.53872	10.6114	1.87463	13.0962
1.82675	2.46603	0.543461	3.87101	1.82651	2.46602	0.820789	6.10452	1.19612	8.6534	1.5178	10.3502	1.88134	12.9014	0.542353	4.04875	0.888857	6.58503	1.16191	8.49885	1.54229	10.4694	1.8757	12.8958
1.82085	2.46574	0.543586	3.85111	1.82061	2.46573	0.820581	6.00001	1.1979	8.61489	1.51876	10.1963	1.88394	12.718	0.542764	3.98321	0.896923	6.53311	1.16236	8.4149	1.5459	10.3321	1.87674	12.7014
1.81497	2.46548	0.543723	3.82972	1.81473	2.46547	0.820294	5.89839	1.20033	8.56336	1.51974	10.0473	1.88661	12.5407	0.543157	3.91972	0.905025	6.48316	1.16291	8.31569	1.54956	10.1992	1.87776	12.513
1.80909	2.46523	0.543909	3.80103	1.80886	2.46522	0.819935	5.79959	1.20343	8.4995	1.52077	9.90301	1.88934	12.3691	0.543541	3.85824	0.913142	6.43494	1.16357	8.20244	1.55325	10.0706	1.87878	12.3302
1.80324	2.465	0.544148	3.76539	1.803	2.46499	0.819511	5.7035	1.2072	8.42416	1.52185	9.76332	1.89213	12.203	0.543924	3.79874	0.921251	6.38822	1.16436	8.07661	1.55696	9.94583	1.8798	12.1528
1.79739	2.46478	0.544442	3.72327	1.79716	2.46478	0.81903	5.61006	1.21165	8.33826	1.52299	9.62813	1.89496	12.0421	0.544315	3.74118	0.929332	6.34277	1.16519	7.95511	1.56068	9.82478	1.88083	11.9807
1.79157	2.46459	0.544799	3.67518	1.79133	2.46458	0.818497	5.51919	1.2168	8.24278	1.52421	9.49732	1.89782	11.886	0.54472	3.68552	0.937361	6.29838	1.16611	7.83789	1.5644	9.70719	1.88188	11.8138
1.78576	2.46442	0.545231	3.62171	1.78552	2.46441	0.817921	5.4308	1.22196	8.15037	1.52553	9.37079	1.90072	11.7345	0.545147	3.63171	0.945312	6.25483	1.16712	7.7249	1.56811	9.59286	1.88296	11.6518
1.77996	2.46427	0.545691	3.57005	1.77973	2.46426	0.817306	5.34483	1.22713	8.06078	1.52676	9.26396	1.90363	11.5875	0.545601	3.57971	0.95316	6.21192	1.16826	7.61612	1.57179	9.48158	1.88408	11.4946
1.77418	2.46414	0.546185	3.52015	1.77395	2.46414	0.816659	5.26121	1.23229	7.97381	1.52789	9.17536	1.90655	11.4445	0.546089	3.52948	0.960877	6.16943	1.16955	7.51154	1.57545	9.37316	1.88525	11.3421
1.76842	2.46404	0.546719	3.47195	1.76819	2.46404	0.815986	5.17988	1.23742	7.88923	1.52887	9.10378	1.90948	11.3055	0.546614	3.48096	0.968433	6.12717	1.17102	7.41115	1.5786	9.28088	1.88648	11.1941
1.76268	2.46396	0.547297	3.42543	1.76245	2.46396	0.815292	5.10076	1.24252	7.80686	1.52969	9.04826	1.9124	11.1702	0.547183	3.43412	0.975797	6.08493	1.1727	7.31497	1.58125	9.20374	1.88778	11.0505
1.75696	2.46391	0.547923	3.38053	1.75673	2.4639	0.814583	5.0238	1.24755	7.72649	1.53031	9.00803	1.9153	11.0383	0.5478	3.38892	0.982937	6.04251	1.17463	7.22302	1.58342	9.14096	1.88917	10.9112
1.75125	2.46388	0.548601	3.3372	1.75102	2.46388	0.813864	4.94894	1.25252	7.64796	1.53072	8.98255	1.91818	10.9099	0.548468	3.3453	0.98982	5.99972	1.17683	7.13532	1.58512	9.09195	1.89064	10.7761
1.74557	2.46388	0.549335	3.29541	1.74534	2.46388	0.81314	4.87612	1.2574	7.57109	1.53132	8.94627	1.92103	10.7845	0.549191	3.30322	0.996413	5.95638	1.17934	7.05189	1.58636	9.05625	1.89221	10.6451
1.7399	2.46391	0.550128	3.25511	1.73968	2.46391	0.812415	4.80528	1.26218	7.49573	1.53199	8.90733	1.92384	10.6622	0.549973	3.26264	1.00268	5.91232	1.1822	6.97276	1.58715	9.03355	1.8939	10.518
1.73426	2.46397	0.550982	3.21626	1.73403	2.46397	0.811693	4.73637	1.26684	7.42172	1.53294	8.85514	1.9266	10.5427	0.550815	3.22352	1.0086	5.86739	1.18543	6.89793	1.58828	9.00112	1.8957	10.3948
1.72864	2.46405	0.551901	3.17881	1.72841	2.46406	0.810979	4.66934	1.27138	7.34894	1.5342	8.79045	1.92932	10.4259	0.551722	3.1858	1.01414	5.82148	1.18905	6.82737	1.58949	8.96613	1.89762	10.2754
1.72304	2.46418	0.552887	3.14272	1.72281	2.46418	0.810277	4.60413	1.27577	7.27725	1.53582	8.71411	1.93197	10.3117	0.552695	3.14946	1.01929	5.77452	1.1931	6.76105	1.59113	8.91896	1.89968	10.1596
1.71746	2.46433	0.553942	3.10795	1.71723	2.46434	0.80959	4.54069	1.28	7.20653	1.53784	8.62718	1.93455	10.1998	0.553736	3.11444	1.02401	5.72645	1.19759	6.6989	1.59316	8.86	1.90188	10.0474
1.7119	2.46452	0.555067	3.07446	1.71168	2.46453	0.808922	4.47898	1.28406	7.13669	1.54035	8.53084	1.93707	10.0904	0.554848	3.08072	1.02832	5.67727	1.20253	6.64079	1.59558	8.78967	1.90422	9.93859
1.70637	2.46474	0.556265	3.04222	1.70615	2.46475	0.808276	4.41895	1.28794	7.06761	1.54307	8.43808	1.93951	9.98308	0.556032	3.04824	1.0322	5.62702	1.20791	6.58659	1.59835	8.70847	1.90671	9.83319
1.70086	2.465	0.557536	3.01117	1.70064	2.46501	0.807655	4.36055	1.29163	6.99923	1.54601	8.34881	1.94187	9.87792	0.55729	3.01697	1.03567	5.57578	1.21374	6.53612	1.60144	8.61693	1.90936	9.73105
1.69538	2.4653	0.558883	2.98129	1.69516	2.46531	0.807063	4.30374	1.29512	6.93147	1.54918	8.26295	1.94415	9.77476	0.558622	2.98687	1.03873	5.52364	1.21999	6.48917	1.60441	8.52705	1.91217	9.63209
1.68992	2.46563	0.560307	2.95255	1.6897	2.46564	0.806502	4.24847	1.2984	6.86426	1.55258	8.1804	1.94634	9.67355	0.560031	2.95791	1.04141	5.47075	1.22666	6.44553	1.60726	8.43873	1.91475	9.54836
1.68448	2.466	0.561807	2.92489	1.68427	2.46602	0.805975	4.19471	1.30147	6.79757	1.55621	8.10107	1.94817	9.58685	0.561517	2.93005	1.04372	5.41724	1.23372	6.40495	1.60999	8.3519	1.91704	9.47879
1.67908	2.46642	0.563386	2.89829	1.67886	2.46644	0.805485	4.14241	1.30432	6.73135	1.56009	8.02486	1.94968	9.51403	0.563081	2.90326	1.0457	5.36327	1.24113	6.36719	1.6126	8.26647	1.91901	9.42247
1.67369	2.46688	0.565045	2.87272	1.67348	2.4669	0.805034	4.09154	1.30695	6.66557	1.56421	7.95165	1.95089	9.45454	0.564724	2.8775	1.04737	5.309	1.24889	6.33202	1.61508	8.18239	1.9206	9.3787
1.66834	2.46738	0.566782	2.84815	1.66813	2.4674	0.804624	4.04205	1.30937	6.60023	1.56856	7.88134	1.95182	9.40795	0.566447	2.85273	1.04875	5.25458	1.25695	6.2992	1.61742	8.09958	1.9218	9.34694
1.66301	2.46792	0.5686	2.82453	1.6628	2.46794	0.804257	3.99392	1.31157	6.53531	1.57315	7.81382	1.95249	9.37395	0.568249	2.82894	1.04989	5.20015	1.26529	6.26852	1.61963	8.018	1.92258	9.3268
1.65771	2.46851	0.570499	2.80185	1.6575	2.46853	0.803936	3.9471	1.31356	6.47081	1.57797	7.74896	1.95291	9.3523	0.570133	2.80608	1.0508	5.14583	1.27388	6.23976	1.62171	7.93761	1.92371	9.2981
1.65244	2.46914	0.57248	2.78007	1.65223	2.46917	0.803662	3.90155	1.31534	6.40675	1.58302	7.68666	1.95351	9.32133	0.572098	2.78414	1.0515	5.09176	1.2827	6.21274	1.62365	7.85837	1.92497	9.26724
1.6472	2.46982	0.574542	2.75917	1.64699	2.46985	0.803438	3.85726	1.31691	6.34313	1.58829	7.62678	1.95415	9.28787	0.574145	2.76307	1.05203	5.03803	1.29172	6.18728	1.62546	7.78024	1.9267	9.22582
1.64198	2.47055	0.576687	2.73912	1.64177	2.47058	0.803265	3.81417	1.31829	6.27998	1.59376	7.5692	1.95501	9.24269	0.576274	2.74286	1.0524	4.98473	1.30092	6.16323	1.62714	7.70321	1.92895	9.17432
1.6368	2.47133	0.578916	2.7199	1.63659	2.47136	0.803145	3.77227	1.31948	6.21731	1.59944	7.51381	1.95605	9.18608	0.578487	2.72348	1.05264	4.93194	1.31028	6.14044	1.6287	7.62726	1.93175	9.11333
1.63164	2.47215	0.581228	2.70148	1.63143	2.47219	0.803079	3.73152	1.32049	6.15515	1.6053	7.46049	1.95727	9.11841	0.580783	2.70491	1.05275	4.87973	1.31978	6.11877	1.63013	7.55237	1.93514	9.04355
1.62651	2.47303	0.583626	2.68384	1.62631	2.47306	0.803069	3.6919	1.32133	6.09353	1.61134	7.40911	1.95864	9.0401	0.583165	2.68712	1.05277	4.82815	1.32939	6.0981	1.63145	7.47854	1.93917	8.96572
