Sym0		Asym0		Sym1		Sym2		Sym3		Sym4		Sym5		Asym1		Asym2		Asym3		Asym4		Asym5	
388  Points		388  Points		388  Points		376  Points		369  Points		360  Points		150  Points		388  Points		380  Points		366  Points		178  Points		138  Points	
Freq (MHz)	Vgr (m/ms)	Freq (MHz)	Vgr (m/ms)	Freq (MHz)	Vgr (m/ms)	Freq (MHz)	Vgr (m/ms)	Freq (MHz)	Vgr (m/ms)	Freq (MHz)	Vgr (m/ms)	Freq (MHz)	Vgr (m/ms)	Freq (MHz)	Vgr (m/ms)	Freq (MHz)	Vgr (m/ms)	Freq (MHz)	Vgr (m/ms)	Freq (MHz)	Vgr (m/ms)	Freq (MHz)	Vgr (m/ms)
2.20478	2.64101	0.346237	0.245617	2.20464	2.64095	0.692229	0.100279	1.28762	-0.199542	1.38454	0.257696	2.0766	-0.257355	0.346146	0.177726	0.858395	-0.125683	1.03836	0.137673	1.71626	-1.27403	1.7312	1.29887
2.19869	2.63998	0.346804	0.342838	2.19854	2.63991	0.69246	0.166144	1.28716	-0.293709	1.38514	0.36766	2.07601	-0.390154	0.346556	0.275341	0.858105	-0.175944	1.03868	0.208488	1.71332	-1.4939	1.7342	1.53391
2.1926	2.63784	0.347819	0.535548	2.19245	2.63781	0.692995	0.29716	1.28627	-0.475868	1.38624	0.581171	2.0748	-0.64185	0.347417	0.46916	0.857583	-0.274872	1.03933	0.348715	1.70936	-1.79043	1.73828	1.8597
2.18651	2.63561	0.349275	0.724093	2.18637	2.63559	0.693831	0.426186	1.28497	-0.643459	1.38782	0.779751	2.07304	-0.862379	0.348722	0.659338	0.856836	-0.369896	1.04029	0.485541	1.70505	-1.89586	1.74278	1.99287
2.18043	2.63333	0.351161	0.907238	2.18029	2.63327	0.694962	0.5524	1.2833	-0.793263	1.38984	0.960405	2.07082	-1.04782	0.35046	0.844504	0.855876	-0.459894	1.04157	0.617763	1.70061	-1.93482	1.74748	2.05903
2.17436	2.63099	0.353462	1.08383	2.17422	2.63089	0.696381	0.675118	1.28131	-0.923829	1.39225	1.12184	2.06821	-1.19891	0.352619	1.02345	0.854714	-0.543871	1.04314	0.744438	1.69613	-1.94666	1.75228	2.09806
2.16829	2.62857	0.356162	1.25281	2.16815	2.62849	0.698078	0.793625	1.27904	-1.03489	1.39501	1.26401	2.06529	-1.31914	0.355183	1.19517	0.853366	-0.621004	1.045	0.864781	1.69163	-1.94538	1.75716	2.12395
2.16223	2.62607	0.359243	1.41353	2.16209	2.62602	0.700043	0.907371	1.27653	-1.12737	1.39808	1.38796	2.06212	-1.41313	0.358134	1.35887	0.851848	-0.690748	1.04713	0.978171	1.68715	-1.93674	1.76208	2.14256
2.15617	2.62349	0.362685	1.56542	2.15603	2.62344	0.702265	1.01592	1.27383	-1.20283	1.40142	1.49524	2.05876	-1.48539	0.361454	1.51385	0.850178	-0.752747	1.04952	1.08432	1.68269	-1.92349	1.76705	2.15665
2.15012	2.62081	0.366467	1.70798	2.14998	2.62076	0.704731	1.1189	1.27098	-1.26293	1.40498	1.58762	2.05527	-1.54004	0.36512	1.65967	0.848375	-0.806725	1.05214	1.18302	1.67827	-1.90695	1.77204	2.1676
2.14408	2.61811	0.370567	1.84104	2.14394	2.61804	0.707428	1.21603	1.26801	-1.30946	1.40875	1.66691	2.05166	-1.58049	0.369113	1.79605	0.846456	-0.852645	1.05498	1.27415	1.67389	-1.88793	1.77705	2.17625
2.13804	2.61533	0.374963	1.9645	2.1379	2.61524	0.710343	1.30717	1.26494	-1.34406	1.41268	1.73475	2.04797	-1.60946	0.373409	1.92283	0.84444	-0.890579	1.05802	1.3579	1.66956	-1.86696	1.78208	2.183
2.13201	2.61241	0.379633	2.07834	2.13187	2.61234	0.713461	1.39217	1.2618	-1.3683	1.41675	1.79273	2.04423	-1.6291	0.377986	2.03995	0.842346	-0.920525	1.06124	1.43443	1.66528	-1.84413	1.78712	2.18814
2.12599	2.60942	0.384555	2.18261	2.12584	2.6094	0.716768	1.47099	1.25862	-1.38346	1.42095	1.84217	2.04045	-1.64106	0.382823	2.14755	0.840192	-0.942769	1.06464	1.50392	1.66105	-1.81971	1.79218	2.19192
2.11997	2.60639	0.389705	2.27753	2.11983	2.6063	0.720249	1.54367	1.25542	-1.39062	1.42525	1.88414	2.03666	-1.64666	0.387897	2.24571	0.837995	-0.95752	1.06818	1.56672	1.65688	-1.79379	1.79724	2.19443
2.11396	2.60324	0.395065	2.36324	2.11382	2.60311	0.723891	1.61023	1.25221	-1.3908	1.42965	1.9196	2.03285	-1.64695	0.393186	2.33458	0.835773	-0.964904	1.07187	1.62319	1.65277	-1.76642	1.8023	2.19562
2.10795	2.59995	0.400611	2.43996	2.10781	2.59988	0.72768	1.67075	1.249	-1.38466	1.43411	1.94944	2.02906	-1.64269	0.39867	2.41441	0.833542	-0.965169	1.07567	1.67357	1.64873	-1.73761	1.80737	2.19567
2.10196	2.5966	0.406325	2.50791	2.10182	2.59658	0.731601	1.72537	1.24582	-1.37288	1.43864	1.97424	2.02527	-1.63447	0.404328	2.4855	0.831319	-0.958522	1.07959	1.71817	1.64475	-1.70731	1.81244	2.1946
2.09597	2.59319	0.412185	2.56728	2.09583	2.59311	0.735642	1.77419	1.24266	-1.35607	1.44322	1.99456	2.02151	-1.6228	0.409384	2.54063	0.829119	-0.945082	1.0836	1.7574	1.64085	-1.67563	1.8175	2.19238
2.08999	2.58966	0.418172	2.61828	2.08985	2.58954	0.739789	1.81733	1.23956	-1.33452	1.44785	2.01087	2.01779	-1.60801	0.413777	2.58253	0.826958	-0.925012	1.0877	1.79149	1.63702	-1.64253	1.82255	2.18897
2.08402	2.58598	0.424268	2.66109	2.08388	2.58592	0.744029	1.8549	1.23651	-1.30856	1.4525	2.02349	2.01409	-1.59045	0.417461	2.61371	0.82485	-0.898497	1.09187	1.82069	1.63327	-1.60789	1.8276	2.18442
2.07806	2.5822	0.430453	2.69588	2.07792	2.58213	0.748349	1.88704	1.23352	-1.27854	1.45718	2.03278	2.01045	-1.57035	0.420403	2.63606	0.822811	-0.865535	1.0961	1.84527	1.6296	-1.57173	1.83264	2.17877
2.0721	2.57839	0.436709	2.72268	2.07196	2.57828	0.752737	1.91391	1.23061	-1.24465	1.46188	2.03898	2.00685	-1.54786	0.422582	2.65143	0.820856	-0.826123	1.10038	1.86549	1.62602	-1.53403	1.83766	2.17185
2.06616	2.57442	0.443017	2.74165	2.06602	2.57431	0.757181	1.93557	1.22778	-1.20705	1.46659	2.04236	2.0033	-1.52311	0.423983	2.66059	0.818999	-0.780333	1.10471	1.88155	1.62252	-1.49476	1.84266	2.16372
2.06022	2.57028	0.449361	2.75285	2.06008	2.57018	0.761669	1.95215	1.22504	-1.16583	1.47131	2.04297	1.99982	-1.49617	0.426005	2.67284	0.817255	-0.728157	1.10907	1.89352	1.61912	-1.45385	1.84764	2.15443
2.0543	2.56604	0.455721	2.75628	2.05416	2.56596	0.76619	1.96379	1.2224	-1.12112	1.47602	2.04096	1.9964	-1.46719	0.428213	2.68532	0.815638	-0.669581	1.11345	1.90171	1.61581	-1.41129	1.8526	2.14384
2.04838	2.56173	0.46208	2.75193	2.04824	2.5616	0.770732	1.9705	1.21986	-1.073	1.48073	2.03652	1.99305	-1.43625	0.431231	2.70057	0.814165	-0.60443	1.11784	1.90623	1.6126	-1.36697	1.85753	2.13194
2.04248	2.55729	0.468421	2.73987	2.04234	2.55715	0.775283	1.97242	1.21744	-1.02144	1.48542	2.02968	1.98977	-1.40331	0.435072	2.7172	0.812849	-0.53265	1.12224	1.90713	1.6095	-1.32088	1.86244	2.11878
2.03658	2.55266	0.474724	2.71999	2.03644	2.55256	0.779834	1.9696	1.21515	-0.966589	1.49009	2.02053	1.98657	-1.36841	0.439745	2.73326	0.811707	-0.454202	1.12664	1.90463	1.60651	-1.27302	1.86731	2.10423
2.0307	2.54793	0.480973	2.69232	2.03056	2.54785	0.784373	1.96206	1.21298	-0.908444	1.49474	2.00914	1.98346	-1.33163	0.445257	2.74666	0.810753	-0.36901	1.13103	1.89873	1.60363	-1.22329	1.87215	2.08826
2.02482	2.54309	0.487149	2.6569	2.02468	2.54298	0.788889	1.94998	1.21096	-0.84694	1.49937	1.9955	1.98043	-1.29294	0.451609	2.75494	0.810004	-0.276995	1.13541	1.8895	1.60086	-1.17167	1.87695	2.07089
2.01896	2.53811	0.493234	2.61366	2.01882	2.53799	0.793372	1.93336	1.20907	-0.782159	1.50395	1.97972	1.97749	-1.25232	0.457971	2.75561	0.809475	-0.178072	1.13975	1.87713	1.59822	-1.11814	1.88171	2.05205
2.01311	2.53296	0.49921	2.56265	2.01297	2.53285	0.797811	1.91221	1.20735	-0.714195	1.5085	1.96185	1.97465	-1.20984	0.464325	2.74854	0.809182	-0.072292	1.14407	1.86168	1.5957	-1.06266	1.88642	2.03172
2.00727	2.52766	0.50506	2.50405	2.00713	2.52754	0.802196	1.88667	1.20578	-0.643012	1.51301	1.94179	1.97191	-1.16545	0.470655	2.73373	0.809141	0.0402513	1.14835	1.84317	1.59332	-1.00516	1.89108	2.00989
2.00145	2.52226	0.510766	2.43806	2.00131	2.52212	0.806517	1.85685	1.20438	-0.568616	1.51746	1.91961	1.96927	-1.11914	0.476941	2.71113	0.809368	0.15929	1.15258	1.82166	1.59107	-0.945672	1.89569	1.98644
1.99563	2.51672	0.516311	2.36481	1.99549	2.51656	0.810765	1.82291	1.20315	-0.49116	1.52186	1.8954	1.96674	-1.07092	0.483166	2.68071	0.809795	0.268199	1.15675	1.79726	1.58895	-0.884196	1.90025	1.96143
1.98983	2.51099	0.521679	2.28481	1.98969	2.51086	0.814399	1.78999	1.20211	-0.410664	1.52621	1.86918	1.96433	-1.02077	0.489312	2.6425	0.810336	0.36469	1.16087	1.77006	1.58698	-0.820715	1.90475	1.93478
1.98404	2.50509	0.526855	2.1985	1.98391	2.50496	0.817442	1.75947	1.20126	-0.327234	1.53049	1.8409	1.96203	-0.968723	0.495361	2.59648	0.810911	0.446977	1.16492	1.74011	1.58517	-0.755204	1.90918	1.90646
1.97827	2.49909	0.531825	2.10645	1.97813	2.49894	0.819917	1.73265	1.2006	-0.241014	1.5347	1.81063	1.95986	-0.914807	0.501294	2.54278	0.811449	0.513553	1.1689	1.70747	1.5835	-0.687756	1.91354	1.87655
1.97251	2.49294	0.536576	2.00942	1.97238	2.49276	0.821847	1.71048	1.20015	-0.152144	1.53885	1.77844	1.95781	-0.858978	0.507095	2.48158	0.811892	0.563332	1.1728	1.67229	1.58199	-0.618413	1.91784	1.84494
1.96677	2.48658	0.541098	1.90825	1.96663	2.48641	0.823249	1.69359	1.1999	-0.0608294	1.54291	1.74431	1.95589	-0.801298	0.512746	2.41297	0.812198	0.595573	1.17662	1.63474	1.58065	-0.547182	1.92206	1.81159
1.96104	2.48008	0.545382	1.80389	1.9609	2.47994	0.82414	1.68244	1.19987	0.0327319	1.5469	1.70834	1.95411	-0.741823	0.51823	2.33728	0.812667	0.64227	1.18034	1.59488	1.57947	-0.474153	1.9262	1.7766
1.95532	2.47345	0.549422	1.69735	1.95519	2.47329	0.825409	1.66607	1.20005	0.128296	1.5508	1.67061	1.95247	-0.680513	0.523532	2.25498	0.813217	0.693617	1.18398	1.5528	1.57846	-0.399433	1.93026	1.73996
1.94962	2.46665	0.553215	1.58973	1.94949	2.4665	0.826775	1.64787	1.20046	0.225528	1.55461	1.63119	1.95097	-0.617513	0.528637	2.16655	0.814034	0.764503	1.18751	1.50877	1.57762	-0.323163	1.93423	1.70168
1.94394	2.4597	0.556759	1.4821	1.9438	2.45952	0.828607	1.6224	1.20109	0.324117	1.55832	1.59014	1.94962	-0.552889	0.53353	2.07268	0.815181	0.855439	1.19094	1.46298	1.57697	-0.245476	1.93811	1.66182
1.93827	2.45254	0.560055	1.37553	1.93814	2.45237	0.830884	1.58907	1.20195	0.423736	1.56194	1.5476	1.94842	-0.486631	0.538202	1.97411	0.816743	0.966992	1.19426	1.41557	1.57649	-0.166494	1.9419	1.6204
1.93262	2.44525	0.563106	1.27114	1.93249	2.4451	0.833572	1.5471	1.20305	0.524026	1.56546	1.50374	1.94737	-0.418933	0.54264	1.87165	0.81882	1.09966	1.19747	1.3668	1.5762	-0.0863855	1.94559	1.57749
1.92699	2.43786	0.565921	1.16988	1.92685	2.43767	0.836633	1.49577	1.20437	0.624556	1.56888	1.45865	1.94649	-0.349896	0.546839	1.7664	0.821534	1.25353	1.20057	1.31696	1.57609	-0.00541707	1.94918	1.53318
1.92137	2.43025	0.568505	1.07255	1.92124	2.43006	0.840015	1.43433	1.20593	0.724907	1.5722	1.41248	1.94576	-0.279643	0.550792	1.65936	0.824604	1.40806	1.20355	1.26626	1.57617	0.0761731	1.95266	1.48755
1.91577	2.42249	0.57087	0.979904	1.91564	2.42231	0.843252	1.37043	1.20772	0.824683	1.5754	1.3655	1.94519	-0.208351	0.554496	1.5516	0.828032	1.56216	1.20641	1.21505	1.57644	0.158274	1.95604	1.44077
1.91019	2.4146	0.573027	0.892543	1.91006	2.41442	0.846339	1.30439	1.20974	0.923453	1.5785	1.31781	1.9448	-0.136152	0.557952	1.44426	0.831813	1.7148	1.20916	1.16359	1.5769	0.240519	1.95931	1.39297
1.90463	2.40659	0.574989	0.81091	1.9045	2.40641	0.849271	1.23654	1.21198	1.0208	1.58148	1.26968	1.94457	-0.0632396	0.561161	1.33833	0.835945	1.86483	1.21178	1.11231	1.57755	0.322684	1.96247	1.34424
1.89908	2.39839	0.576769	0.735389	1.89895	2.39822	0.852045	1.16724	1.21412	1.10416	1.58436	1.22139	1.94451	0.0102203	0.564128	1.23493	0.840419	2.01126	1.21397	1.06797	1.57839	0.404469	1.96551	1.29484
1.89356	2.39007	0.578383	0.666084	1.89343	2.38983	0.854658	1.09692	1.21607	1.17394	1.58712	1.17315	1.94461	0.0838962	0.56686	1.13497	0.845227	2.15311	1.21577	1.03055	1.57942	0.48557	1.96844	1.24488
1.88806	2.38161	0.579843	0.603135	1.88793	2.38139	0.857107	1.02594	1.21777	1.23056	1.58977	1.12515	1.94489	0.157639	0.569366	1.03921	0.850355	2.28951	1.21721	1.00008	1.58063	0.565814	1.97126	1.19456
1.88257	2.37297	0.581166	0.546524	1.88244	2.3728	0.859392	0.954678	1.21918	1.27456	1.59231	1.07779	1.94534	0.231298	0.571656	0.948376	0.855792	2.41981	1.21832	0.976468	1.58203	0.644782	1.97396	1.14423
1.8771	2.36427	0.582365	0.496069	1.87698	2.36404	0.861513	0.883632	1.22024	1.30672	1.59474	1.03134	1.94596	0.304493	0.573743	0.863005	0.861522	2.54342	1.21912	0.959155	1.58361	0.722152	1.97654	1.09404
1.87166	2.35543	0.583455	0.451704	1.87153	2.35524	0.86347	0.813209	1.22094	1.32698	1.59707	0.986037	1.94675	0.376983	0.575639	0.783515	0.867529	2.65989	1.21962	0.948178	1.58536	0.797791	1.97901	1.04419
1.86623	2.34648	0.58445	0.413143	1.86611	2.34627	0.865266	0.743647	1.22195	1.35552	1.59929	0.942241	1.9477	0.448574	0.577358	0.710152	0.873797	2.76892	1.22033	0.932768	1.58729	0.871359	1.98136	0.995033
1.86083	2.33743	0.585362	0.380187	1.8607	2.3372	0.866902	0.675395	1.22308	1.38637	1.60142	0.900205	1.94882	0.519026	0.578916	0.643075	0.880307	2.87024	1.22109	0.91616	1.58938	0.942543	1.9836	0.946812
1.85545	2.32826	0.586204	0.352508	1.85532	2.32807	0.868383	0.608859	1.22466	1.42766	1.60345	0.860298	1.95009	0.588079	0.580326	0.582363	0.887043	2.96367	1.22211	0.89395	1.59164	1.01116	1.98573	0.899736
1.85009	2.31901	0.586989	0.329815	1.84996	2.31881	0.869712	0.544206	1.22672	1.47856	1.60539	0.822746	1.95153	0.655508	0.581603	0.527984	0.893984	3.04921	1.22336	0.866755	1.59405	1.07697	1.98775	0.854143
1.84475	2.30967	0.587726	0.311749	1.84462	2.30945	0.870894	0.481741	1.22931	1.53829	1.60725	0.787851	1.95312	0.721005	0.582762	0.479738	0.901114	3.1268	1.22481	0.835114	1.59661	1.13975	1.98967	0.810273
1.83943	2.30028	0.588339	0.299515	1.8393	2.30003	0.871935	0.421761	1.23247	1.60555	1.60902	0.756002	1.95486	0.784395	0.583817	0.437414	0.908414	3.19647	1.22646	0.8	1.59931	1.19933	1.99149	0.768381
1.83413	2.29082	0.588845	0.291553	1.83401	2.29057	0.87284	0.364415	1.23626	1.67887	1.61073	0.727385	1.95674	0.845552	0.584781	0.400871	0.915865	3.2583	1.22826	0.762684	1.60214	1.25556	1.99322	0.728762
1.82886	2.28126	0.589254	0.286651	1.82873	2.28103	0.873617	0.309851	1.24022	1.7479	1.61238	0.702232	1.95876	0.904218	0.585667	0.369818	0.92345	3.31224	1.22998	0.728902	1.6051	1.30818	1.99485	0.691566
1.8236	2.27166	0.589574	0.283792	1.82348	2.27146	0.87427	0.258252	1.24433	1.81234	1.61398	0.680783	1.96091	0.960172	0.586488	0.343929	0.93115	3.35837	1.23162	0.699193	1.60818	1.35725	1.99641	0.65709
1.81837	2.26206	0.589807	0.282082	1.81825	2.26185	0.874808	0.209674	1.24858	1.87202	1.61533	0.665236	1.96319	1.01334	0.587254	0.322964	0.938948	3.39674	1.2332	0.674012	1.61095	1.39705	1.99788	0.625566
1.81316	2.25245	0.589955	0.281348	1.81304	2.25223	0.875238	0.164182	1.25297	1.92677	1.61646	0.654471	1.96559	1.06357	0.587978	0.306549	0.946826	3.42728	1.23473	0.653841	1.61337	1.42859	1.99929	0.597087
1.80798	2.24283	0.590168	0.280745	1.80786	2.24258	0.875566	0.121807	1.25747	1.97648	1.61738	0.647436	1.9681	1.11072	0.588669	0.294386	0.954764	3.44987	1.23622	0.639141	1.61542	1.45309	2.00064	0.571917
1.80281	2.23318	0.590399	0.280353	1.80269	2.23294	0.8758	0.082492	1.26209	2.02107	1.6181	0.643069	1.97071	1.1547	0.589337	0.286254	0.962746	3.46454	1.23768	0.630363	1.61706	1.47138	2.00193	0.550215
1.79767	2.22355	0.590713	0.280494	1.79755	2.22333	0.875947	0.046355	1.2668	2.0604	1.61863	0.640476	1.97343	1.19541	0.58999	0.281822	0.970753	3.47103	1.23913	0.628024	1.61827	1.48429	2.00318	0.532079
1.79255	2.21397	0.591111	0.281742	1.79243	2.2137	0.876014	0.0132719	1.2716	2.09438	1.61897	0.639227	1.97623	1.23281	0.590637	0.280777	0.978764	3.46911	1.24058	0.632714	1.61906	1.49229	2.00439	0.517634
1.78746	2.20439	0.591596	0.284806	1.78734	2.20419	0.876008	-0.016811	1.27646	2.12302	1.61945	0.637877	1.97912	1.26681	0.591286	0.282892	0.986762	3.45859	1.24205	0.644911	1.6202	1.50321	2.00557	0.50698
1.78238	2.19489	0.592174	0.290283	1.78226	2.19468	0.875936	-0.0439289	1.28139	2.14624	1.61998	0.636899	1.98208	1.29747	0.591943	0.287941	0.994725	3.43912	1.24355	0.665254	1.62144	1.51462	2.00673	0.500247
1.77733	2.18551	0.592852	0.298923	1.77721	2.18527	0.875805	-0.0682545	1.28637	2.16392	1.62069	0.636685	1.9851	1.32466	0.592614	0.295666	1.00263	3.41035	1.24512	0.694249	1.62314	1.52939	2.00788	0.497402
1.77229	2.17618	0.593553	0.309908	1.77218	2.17597	0.875621	-0.0897557	1.29138	2.1761	1.62159	0.638087	1.98819	1.34843	0.593307	0.305863	1.01046	3.37186	1.24676	0.732514	1.62533	1.54655	2.00902	0.498524
1.76728	2.16697	0.594282	0.323054	1.76717	2.16673	0.875391	-0.108563	1.29641	2.18274	1.62269	0.64224	1.99133	1.36879	0.594026	0.318287	1.01819	3.32325	1.2485	0.78065	1.62799	1.56532	2.01018	0.503697
1.76229	2.15793	0.595044	0.338233	1.76218	2.15772	0.87512	-0.124778	1.30145	2.18382	1.62399	0.650685	1.99451	1.3857	0.594776	0.332774	1.0258	3.26415	1.25036	0.839106	1.63116	1.58445	2.01135	0.512797
1.75733	2.149	0.595843	0.355234	1.75721	2.14884	0.874815	-0.138562	1.30649	2.17935	1.6255	0.665102	1.99772	1.39923	0.595562	0.349137	1.03326	3.19417	1.25237	0.90847	1.63484	1.60264	2.01254	0.525872
1.75238	2.1403	0.596683	0.373916	1.75226	2.1401	0.874481	-0.149995	1.31151	2.16924	1.62706	0.684615	2.00096	1.40951	0.596387	0.367243	1.04054	3.11304	1.25455	0.989112	1.63856	1.61687	2.01377	0.542865
1.74745	2.13184	0.597568	0.394059	1.74733	2.13161	0.874123	-0.15908	1.3165	2.15356	1.62866	0.709459	2.00381	1.41588	0.597256	0.386916	1.04762	3.02066	1.25694	1.08125	1.6423	1.62699	2.01488	0.560751
1.74254	2.12362	0.598502	0.415594	1.74242	2.12344	0.873747	-0.16604	1.32145	2.13239	1.63033	0.739606	2.00624	1.41936	0.598173	0.407995	1.05448	2.91701	1.25954	1.18504	1.64607	1.63303	2.01586	0.578217
1.73765	2.11569	0.599486	0.438373	1.73753	2.11551	0.873357	-0.170985	1.32634	2.1057	1.63207	0.775041	2.00825	1.42084	0.599139	0.430363	1.06108	2.80238	1.2624	1.30025	1.64984	1.63507	2.01669	0.594307
1.73278	2.10811	0.600525	0.462323	1.73266	2.10793	0.872958	-0.173933	1.33116	2.0736	1.63391	0.815793	2.00984	1.42124	0.600159	0.453888	1.06741	2.67739	1.26554	1.42641	1.65361	1.63319	2.01736	0.607965
1.72792	2.10093	0.60162	0.487262	1.72781	2.10076	0.872554	-0.175005	1.33591	2.0362	1.63584	0.861803	2.01101	1.42106	0.601234	0.478505	1.07344	2.54293	1.26899	1.56276	1.65738	1.62742	2.01787	0.618471
1.72308	2.09418	0.602773	0.513062	1.72297	2.09403	0.87215	-0.174332	1.34056	1.99358	1.63788	0.912861	2.01176	1.42072	0.602367	0.504034	1.07915	2.40019	1.27276	1.7081	1.66112	1.61783	2.01819	0.625564
1.71826	2.088	0.603987	0.539731	1.71814	2.08789	0.87175	-0.171981	1.34511	1.94602	1.64005	0.968858	2.01284	1.41989	0.60356	0.530421	1.08452	2.25082	1.27687	1.86094	1.66484	1.60454	2.01867	0.636226
1.71344	2.08247	0.605264	0.567092	1.71333	2.08235	0.871356	-0.16806	1.34954	1.89367	1.64236	1.0296	2.01401	1.41859	0.604815	0.557531	1.08953	2.0967	1.28134	2.01953	1.66853	1.58764	2.0192	0.648089
1.70865	2.07762	0.606604	0.595091	1.70853	2.07751	0.870974	-0.16262	1.35385	1.83678	1.6448	1.09475	2.0156	1.41631	0.606133	0.585331	1.09419	1.93984	1.28619	2.18178	1.67217	1.56733	2.01994	0.664851
1.70386	2.07363	0.60801	0.623702	1.70374	2.07353	0.870606	-0.155725	1.35802	1.77566	1.64741	1.16407	2.0176	1.41234	0.607516	0.613733	1.09849	1.78239	1.29141	2.34544	1.67576	1.54369	2.0209	0.687312
1.69908	2.07064	0.609483	0.652766	1.69896	2.07054	0.870255	-0.147517	1.36204	1.71068	1.65018	1.23717	2.02002	1.40611	0.608965	0.642619	1.10242	1.62653	1.29701	2.50846	1.67929	1.51686	2.0221	0.716124
1.6943	2.06875	0.611023	0.68224	1.69419	2.06875	0.869925	-0.138066	1.36591	1.64219	1.65312	1.31364	2.02284	1.39691	0.610481	0.672004	1.10599	1.47427	1.30299	2.66871	1.68276	1.48704	2.02357	0.752101
1.68953	2.06828	0.612631	0.712101	1.68942	2.06832	0.869618	-0.127408	1.36962	1.57063	1.65624	1.393	2.02605	1.38394	0.612066	0.701747	1.10922	1.32731	1.30933	2.82427	1.68615	1.45448	2.02536	0.796063
1.68476	2.06946	0.614309	0.742266	1.68464	2.06951	0.869337	-0.115597	1.37316	1.49654	1.65955	1.47473	2.02923	1.36848	0.61372	0.73178	1.11212	1.18718	1.31602	2.97361	1.68947	1.41941	2.02725	0.842727
1.67998	2.07255	0.616056	0.772656	1.67987	2.07262	0.869085	-0.102697	1.37653	1.42028	1.66304	1.5584	2.03236	1.35065	0.615443	0.762068	1.1147	1.05489	1.32305	3.11541	1.6927	1.38207	2.02925	0.891913
1.67519	2.07786	0.617874	0.803269	1.67508	2.07796	0.868863	-0.0888128	1.37971	1.34245	1.66674	1.64337	2.03546	1.3306	0.617237	0.792629	1.11699	0.931256	1.3304	3.24878	1.69585	1.34266	2.03136	0.943423
