Sym0		Asym0		Sym1		Sym2		Sym3		Sym4		Sym5		Asym1		Asym2		Asym3		Asym4		Asym5	
386  Points		381  Points		386  Points		374  Points		366  Points		342  Points		132  Points		381  Points		379  Points		366  Points		173  Points		126  Points	
Freq (MHz)	Vph (m/ms)	Freq (MHz)	Vph (m/ms)	Freq (MHz)	Vph (m/ms)	Freq (MHz)	Vph (m/ms)	Freq (MHz)	Vph (m/ms)	Freq (MHz)	Vph (m/ms)	Freq (MHz)	Vph (m/ms)	Freq (MHz)	Vph (m/ms)	Freq (MHz)	Vph (m/ms)	Freq (MHz)	Vph (m/ms)	Freq (MHz)	Vph (m/ms)	Freq (MHz)	Vph (m/ms)
2.20092	2.51207	0.346114	1092.83	2.20212	2.51209	0.69223	1211.02	1.38429	1534.07	1.40932	1722.33	2.07661	1134.82	0.34612	704.329	2.20059	2.55623	1.03837	1157.58	1.7304	753.285	1.879	1254.2
2.19508	2.51202	0.346407	132.01	2.19627	2.51203	0.692495	240.533	1.38268	430.774	1.41093	451.404	2.07642	501.878	0.346448	123.784	2.19578	2.5575	1.03888	324.204	1.72996	375.708	1.8794	493.857
2.18925	2.51198	0.347159	70.3962	2.19044	2.51199	0.693114	133.641	1.37978	250.089	1.41393	260.247	2.07607	322.137	0.347235	68.0024	2.19099	2.5588	1.03996	188.678	1.72924	250.182	1.88015	307.569
2.18343	2.51195	0.348364	48.1238	2.18461	2.51196	0.694081	92.6207	1.37615	175.876	1.41775	183.162	2.07558	237.153	0.348473	47.0045	2.18622	2.56012	1.04156	133.205	1.72824	187.458	1.88124	223.416
2.17762	2.51194	0.350012	36.6647	2.1788	2.51194	0.695387	70.9493	1.37214	135.427	1.42204	141.527	2.07495	187.617	0.350154	36.0204	2.18146	2.56147	1.04365	103.06	1.72698	149.824	1.88266	175.494
2.17182	2.51193	0.352091	29.7031	2.173	2.51193	0.697023	57.5644	1.36793	109.968	1.42661	115.466	2.07418	155.173	0.352266	29.2862	2.17671	2.56284	1.04618	84.1384	1.72548	124.726	1.88438	144.562
2.16603	2.51194	0.354587	25.0395	2.16721	2.51194	0.698976	48.4862	1.36361	92.4688	1.43135	97.6191	2.07327	132.272	0.354793	24.7487	2.17197	2.56423	1.0491	71.1667	1.72376	106.79	1.8864	122.952
2.16025	2.51196	0.357483	21.7071	2.16143	2.51196	0.701231	41.9312	1.35925	79.7022	1.43622	84.6328	2.07223	115.241	0.357718	21.4933	2.16724	2.56563	1.05236	61.7261	1.72183	93.3294	1.88868	107.008
2.15449	2.512	0.360759	19.214	2.15566	2.51199	0.703774	36.9808	1.35488	69.9778	1.44118	74.7599	2.07107	102.078	0.361022	19.0507	2.16252	2.56706	1.05591	54.5517	1.71971	82.8526	1.89121	94.7628
2.14874	2.51205	0.364396	17.2837	2.14991	2.51204	0.706587	33.1137	1.35051	62.3248	1.4462	67.001	2.06978	91.5977	0.364686	17.1552	2.15781	2.5685	1.05972	48.9173	1.71744	74.4649	1.89398	85.0662
2.143	2.51211	0.368373	15.7487	2.14416	2.5121	0.709653	30.0121	1.34617	56.1458	1.45128	60.7429	2.06839	83.055	0.368688	15.6453	2.1531	2.56996	1.06375	44.3768	1.71502	67.5973	1.89695	77.1992
2.13727	2.51219	0.372669	14.5018	2.13843	2.51218	0.712957	27.4711	1.34186	51.053	1.4564	55.5887	2.06689	75.9571	0.373007	14.417	2.1484	2.57143	1.06797	40.6408	1.71247	61.8702	1.90011	70.69
2.13155	2.51229	0.377261	13.471	2.13271	2.51227	0.716479	25.3528	1.3376	46.7837	1.46156	51.2701	2.06529	69.9655	0.377621	13.4002	2.14371	2.57291	1.07236	37.5137	1.70983	57.021	1.90345	65.2158
2.12585	2.5124	0.382129	12.6062	2.12701	2.51238	0.720204	23.5609	1.33338	43.1536	1.46674	47.5991	2.0636	64.8399	0.382508	12.5464	2.13901	2.57441	1.07688	34.8581	1.70709	52.862	1.90694	60.5487
2.12016	2.51253	0.387251	11.8715	2.12132	2.5125	0.724115	22.0262	1.32922	40.0297	1.47194	44.4403	2.06182	60.4047	0.387648	11.8204	2.13432	2.57592	1.08152	32.5753	1.70427	49.2555	1.91057	56.5229
2.11448	2.51267	0.392606	11.2405	2.11564	2.51264	0.728195	20.6976	1.32512	37.3135	1.47717	41.6935	2.05997	56.5292	0.39302	11.1964	2.12963	2.57743	1.08626	30.592	1.7014	46.0984	1.91433	53.0151
2.10882	2.51283	0.398173	10.6935	2.10997	2.5128	0.732431	19.5367	1.32109	34.9304	1.4824	39.2829	2.05805	53.1134	0.397874	10.7206	2.12494	2.57896	1.09109	28.8531	1.69848	43.3116	1.91819	49.9315
2.10317	2.51301	0.403934	10.2152	2.10432	2.51297	0.736806	18.5139	1.31713	32.8231	1.48765	37.1504	2.05607	50.0801	0.402129	10.3569	2.12025	2.58049	1.09599	27.316	1.69553	40.8337	1.92216	47.1998
2.09754	2.51321	0.409869	9.79381	2.09869	2.51317	0.741306	17.6062	1.31324	30.9467	1.4929	35.2504	2.05403	47.3683	0.405723	10.0814	2.11555	2.58203	1.10096	25.9476	1.69256	38.6162	1.92622	44.7631
2.09192	2.51343	0.41596	9.41998	2.09306	2.51338	0.745919	16.7954	1.30943	29.2656	1.49816	33.5468	2.05195	44.9296	0.408609	9.87808	2.11085	2.58357	1.10598	24.7215	1.68957	36.6203	1.93035	42.5762
2.08632	2.51366	0.422188	9.08623	2.08746	2.51361	0.750631	16.0668	1.3057	27.7512	1.50342	32.0107	2.04983	42.7246	0.410756	9.73602	2.10615	2.58511	1.11104	23.6166	1.68659	34.8145	1.93455	40.6024
2.08073	2.51392	0.428537	8.78653	2.08186	2.51386	0.755431	15.4085	1.30206	26.38	1.50868	30.6184	2.04768	40.7213	0.41214	9.64821	2.10143	2.58664	1.11614	22.6157	1.68361	33.173	1.9388	38.8122
2.07515	2.51419	0.434989	8.51594	2.07629	2.51413	0.760305	14.8109	1.2985	25.1331	1.51393	29.3505	2.0455	38.8934	0.414144	9.52604	2.09671	2.58818	1.12126	21.7047	1.68065	31.6745	1.94311	37.181
2.06959	2.51448	0.441528	8.27036	2.07072	2.51442	0.765243	14.2658	1.29505	23.9946	1.51917	28.1911	2.04331	37.2187	0.416339	9.39839	2.09197	2.58971	1.1264	20.872	1.67771	30.3014	1.94746	35.6885
2.06405	2.5148	0.448138	8.04641	2.06518	2.51473	0.770234	13.7667	1.29169	22.9512	1.5244	27.1266	2.0411	35.679	0.419352	9.23281	2.08722	2.59123	1.13156	20.1078	1.6748	29.0387	1.95184	34.3177
2.05852	2.51514	0.454804	7.84123	2.05965	2.51507	0.775268	13.3078	1.28843	21.9917	1.52962	26.146	2.03889	34.2586	0.423205	9.03569	2.08245	2.59273	1.13672	19.404	1.67193	27.8739	1.95625	33.0543
2.05301	2.5155	0.461509	7.65241	2.05413	2.51542	0.780334	12.8845	1.28528	21.1067	1.53482	25.2394	2.03669	32.9443	0.427924	8.81389	2.07766	2.59423	1.14188	18.7534	1.66911	26.796	1.96069	31.886
2.04752	2.51588	0.468238	7.47789	2.04863	2.5158	0.785422	12.4925	1.28225	20.2881	1.54	24.3988	2.03449	31.7247	0.433534	8.57432	2.07286	2.59571	1.14704	18.1504	1.66634	25.796	1.96513	30.8025
2.04204	2.51628	0.474976	7.31591	2.04315	2.51619	0.790523	12.1286	1.27933	19.5289	1.54516	23.6172	2.03231	30.59	0.440055	8.32345	2.06803	2.59716	1.15219	17.5896	1.66363	24.8658	1.96959	29.7948
2.03658	2.5167	0.481708	7.16495	2.03769	2.51662	0.795628	11.7895	1.27653	18.8232	1.55029	22.8884	2.03015	29.5319	0.446651	8.09491	2.06318	2.5986	1.15732	17.0668	1.66098	23.9986	1.97405	28.8551
2.03113	2.51715	0.488418	7.0237	2.03224	2.51706	0.800726	11.4728	1.27386	18.1658	1.55539	22.2072	2.02802	28.5429	0.453305	7.88575	2.0583	2.60001	1.16243	16.578	1.6584	23.1883	1.97851	27.9766
2.02571	2.51763	0.49509	6.891	2.02681	2.51753	0.80581	11.1761	1.27132	17.5521	1.56046	21.569	2.02592	27.6165	0.460002	7.69344	2.05339	2.60139	1.16752	16.1201	1.6559	22.4297	1.98296	27.1536
2.02029	2.51812	0.50171	6.76584	2.0214	2.51802	0.81087	10.8976	1.26892	16.9781	1.56549	20.9697	2.02387	26.7472	0.466728	7.51588	2.04845	2.60274	1.17257	15.69	1.65349	21.7182	1.98739	26.3808
2.0149	2.51864	0.508261	6.64735	2.016	2.51854	0.815252	10.6682	1.26666	16.4403	1.57048	20.4059	2.02186	25.9299	0.473465	7.35123	2.04348	2.60406	1.17758	15.2851	1.65116	21.0497	1.99181	25.6537
2.00953	2.51919	0.514729	6.53473	2.01062	2.51908	0.818964	10.4817	1.26455	15.9357	1.57543	19.8743	2.0199	25.1603	0.4802	7.19792	2.03847	2.60534	1.18256	14.9033	1.64893	20.4205	1.9962	24.9682
2.00417	2.51976	0.521096	6.42729	2.00526	2.51964	0.822015	10.3332	1.2626	15.4614	1.58033	19.3723	2.01801	24.4344	0.486916	7.05459	2.03343	2.60658	1.18748	14.5425	1.6468	19.8276	2.00056	24.3209
1.99883	2.52036	0.527349	6.32442	1.99991	2.52023	0.824413	10.2194	1.2608	15.0152	1.58518	18.8972	2.01617	23.7487	0.493598	6.92007	2.02835	2.60778	1.19236	14.2009	1.64477	19.2679	2.00489	23.7084
1.9935	2.52098	0.53347	6.22556	1.99458	2.52085	0.826167	10.1376	1.25917	14.5947	1.58998	18.447	2.01441	23.1001	0.500231	6.7933	2.02323	2.60894	1.19717	13.8769	1.64285	18.7389	2.00918	23.1281
1.9882	2.52163	0.539445	6.13022	1.98928	2.52149	0.827287	10.0861	1.25771	14.198	1.59472	18.0195	2.01273	22.4858	0.506799	6.67339	2.01807	2.61006	1.20193	13.5691	1.64105	18.2383	2.01342	22.5772
1.98291	2.5223	0.54526	6.03797	1.98398	2.52216	0.82889	10.0131	1.25642	13.8234	1.59939	17.6131	2.01112	21.9033	0.513286	6.55951	2.01288	2.61113	1.20661	13.2762	1.63937	17.7641	2.01761	22.0536
1.97764	2.523	0.550899	5.94843	1.97871	2.52286	0.830624	9.93512	1.25532	13.4694	1.604	17.2262	2.00961	21.3503	0.519678	6.45097	2.00764	2.61216	1.21123	12.997	1.63782	17.3144	2.02175	21.5552
1.97238	2.52373	0.55635	5.86125	1.97345	2.52358	0.83297	9.83138	1.25441	13.1344	1.60854	16.8572	2.00819	20.8247	0.525957	6.34712	2.00237	2.61314	1.21577	12.7305	1.6364	16.8875	2.02582	21.08
1.96715	2.52448	0.5616	5.77615	1.96821	2.52433	0.835912	9.70377	1.25369	12.8172	1.613	16.5048	2.00686	20.3246	0.532109	6.24741	1.99706	2.61408	1.22022	12.4757	1.63512	16.4818	2.02983	20.6265
1.96193	2.52527	0.566637	5.69286	1.96299	2.5251	0.839431	9.55451	1.25317	12.5166	1.61738	16.168	2.00565	19.8485	0.538119	6.15132	1.99171	2.61497	1.22459	12.2318	1.63398	16.0959	2.03377	20.1931
1.95673	2.52607	0.571453	5.61117	1.95779	2.52591	0.843501	9.38602	1.25285	12.2315	1.62169	15.8455	2.00454	19.3946	0.54397	6.05841	1.98632	2.61583	1.22887	11.998	1.63299	15.7286	2.03763	19.7783
1.95155	2.52691	0.576039	5.53089	1.9526	2.52674	0.848088	9.20083	1.25274	11.961	1.6259	15.5364	2.00355	18.9617	0.54965	5.9683	1.98089	2.61663	1.23305	11.7736	1.63215	15.3788	2.04141	19.3809
1.94638	2.52777	0.580391	5.45188	1.94743	2.5276	0.852578	9.02365	1.25284	11.7041	1.63003	15.2398	2.00268	18.5484	0.555144	5.88062	1.97544	2.6174	1.23714	11.558	1.63146	15.0452	2.04511	18.9998
1.94123	2.52866	0.584502	5.37403	1.94228	2.52848	0.856963	8.85384	1.25315	11.46	1.63406	14.9549	2.00193	18.1536	0.56044	5.79507	1.96994	2.61813	1.24112	11.3505	1.63094	14.727	2.04871	18.6339
1.9361	2.52958	0.588373	5.29724	1.93714	2.52939	0.861235	8.6908	1.25369	11.228	1.63799	14.6809	2.00132	17.7761	0.565526	5.71139	1.96442	2.61882	1.24499	11.1506	1.63057	14.4232	2.05222	18.2821
1.93098	2.53053	0.592003	5.22145	1.93203	2.53033	0.865388	8.534	1.25434	11.0351	1.64183	14.4171	2.00084	17.4149	0.570393	5.62936	1.95886	2.61947	1.24828	10.9823	1.63038	14.133	2.05563	17.9436
1.92589	2.5315	0.595396	5.14663	1.92692	2.5313	0.869415	8.38296	1.25502	10.8771	1.64556	14.1629	2.0005	17.0692	0.575031	5.54878	1.95328	2.62008	1.25101	10.8428	1.63036	13.8557	2.05894	17.6176
1.9208	2.5325	0.598556	5.07277	1.92184	2.53229	0.873309	8.23724	1.25568	10.7508	1.64918	13.9176	2.0003	16.738	0.579435	5.4695	1.94767	2.62067	1.25323	10.7302	1.63051	13.5905	2.06214	17.3034
1.91573	2.53352	0.60149	4.99986	1.91676	2.53331	0.877064	8.09645	1.25627	10.6535	1.65269	13.6809	2.00026	16.4205	0.583601	5.39139	1.94203	2.62122	1.25495	10.6428	1.63083	13.3367	2.06522	17.0001
1.91068	2.53457	0.604206	4.92792	1.91171	2.53436	0.880676	7.96024	1.25673	10.5835	1.65609	13.4521	2.00036	16.1161	0.587526	5.31437	1.93636	2.62174	1.25619	10.5794	1.63133	13.0937	2.0682	16.7073
1.90564	2.53565	0.606715	4.85698	1.90667	2.53543	0.88414	7.82828	1.25704	10.5393	1.65938	13.2308	2.00061	15.824	0.59121	5.23836	1.93068	2.62223	1.25698	10.5393	1.63202	12.861	2.07105	16.4242
1.90062	2.53675	0.609028	4.78707	1.90164	2.53653	0.88745	7.70028	1.25751	10.4766	1.66255	13.0167	2.00103	15.5436	0.594656	5.16333	1.92497	2.62269	1.25811	10.4821	1.63288	12.638	2.07379	16.1504
1.89561	2.53788	0.611156	4.71823	1.89662	2.53765	0.890605	7.57597	1.25804	10.4096	1.66561	12.8092	2.0016	15.2742	0.597867	5.08925	1.91924	2.62313	1.25932	10.4206	1.63391	12.4241	2.0764	15.8853
1.89061	2.53903	0.613114	4.6505	1.89162	2.5388	0.893602	7.45513	1.25882	10.3203	1.66855	12.6081	2.00232	15.0154	0.600851	5.01613	1.91348	2.62355	1.26094	10.3381	1.63513	12.219	2.0789	15.6285
1.88562	2.5402	0.614914	4.58392	1.88663	2.53996	0.896438	7.33754	1.25987	10.2103	1.67138	12.413	2.00321	14.7666	0.603615	4.94397	1.90772	2.62394	1.26295	10.2357	1.63653	12.0221	2.08127	15.3795
1.88064	2.5414	0.616569	4.51854	1.88165	2.54115	0.899112	7.22302	1.26126	10.0815	1.67409	12.2237	2.00426	14.5272	0.60617	4.8728	1.90193	2.62431	1.26531	10.1144	1.6381	11.8331	2.08352	15.138
1.87567	2.54261	0.618094	4.4544	1.87668	2.54236	0.901625	7.11139	1.26304	9.93604	1.67669	12.0398	2.00547	14.2969	0.608525	4.80266	1.89613	2.62466	1.26801	9.97557	1.63984	11.6515	2.08564	14.9036
1.87071	2.54384	0.619501	4.39151	1.87172	2.54359	0.903977	7.0025	1.26529	9.77628	1.67917	11.8611	2.00684	14.0751	0.610694	4.73357	1.89031	2.62499	1.27099	9.82077	1.64175	11.4769	2.08765	14.676
1.86576	2.54509	0.620805	4.32993	1.86676	2.54484	0.906169	6.89621	1.26775	9.62374	1.68155	11.6874	2.00836	13.8615	0.612689	4.66559	1.88448	2.62531	1.27386	9.6705	1.64355	11.3302	2.08954	14.4548
1.8608	2.54635	0.622017	4.26967	1.86181	2.54609	0.908203	6.79242	1.27043	9.47802	1.68382	11.5185	2.01005	13.6556	0.614523	4.59875	1.87864	2.62561	1.27661	9.52455	1.64519	11.2091	2.09132	14.2398
1.85586	2.54762	0.623149	4.21075	1.85686	2.54736	0.910083	6.69101	1.2733	9.33874	1.68572	11.375	2.01188	13.4571	0.61621	4.5331	1.87278	2.62589	1.27925	9.38272	1.6466	11.1114	2.09298	14.0307
1.8509	2.5489	0.624214	4.15319	1.85191	2.54864	0.911811	6.59189	1.27638	9.20552	1.68728	11.2554	2.01386	13.2656	0.617763	4.46867	1.86691	2.62616	1.28178	9.24483	1.64777	11.0358	2.09453	13.8272
1.84595	2.55018	0.625221	4.097	1.84696	2.54992	0.913393	6.49498	1.27965	9.07803	1.68853	11.1582	2.01599	13.0808	0.619195	4.40551	1.86103	2.62641	1.28421	9.11071	1.64865	10.9811	2.09599	13.6292
1.84099	2.55146	0.626183	4.04218	1.842	2.5512	0.914832	6.4002	1.2831	8.95593	1.6895	11.0825	2.01826	12.9024	0.620521	4.34363	1.85514	2.62666	1.28654	8.98023	1.64922	10.9464	2.09734	13.4364
1.83601	2.55272	0.62699	3.99553	1.83703	2.55247	0.916134	6.30749	1.28673	8.83891	1.69019	11.0275	2.02067	12.73	0.621752	4.28307	1.84925	2.62689	1.28877	8.85324	1.65005	10.8971	2.0986	13.2487
1.83102	2.55398	0.627661	3.95659	1.83204	2.55372	0.917304	6.21679	1.29053	8.72667	1.69063	10.9925	2.02321	12.5634	0.622901	4.22385	1.84334	2.62711	1.29092	8.72964	1.65098	10.8442	2.09978	13.0658
1.826	2.5552	0.628206	3.92495	1.82703	2.55496	0.918349	6.12804	1.29449	8.61894	1.69126	10.9426	2.02588	12.4023	0.62398	4.16598	1.83742	2.62731	1.293	8.60933	1.65227	10.7734	2.10088	12.8876
1.82096	2.5564	0.628632	3.90031	1.82199	2.55616	0.919275	6.0412	1.29859	8.51544	1.69193	10.8889	2.02867	12.2463	0.625	4.10948	1.8315	2.62751	1.295	8.49221	1.65395	10.6856	2.1019	12.7139
1.81588	2.55755	0.628944	3.88239	1.81691	2.55732	0.920088	5.95623	1.30283	8.41593	1.69282	10.8166	2.03157	12.0954	0.625971	4.05435	1.82557	2.6277	1.29695	8.3782	1.65605	10.582	2.10286	12.5446
1.81075	2.55864	0.629142	3.87101	1.8118	2.55843	0.920795	5.87308	1.30721	8.32016	1.69393	10.7266	2.03458	11.9491	0.626903	4.0006	1.81963	2.62789	1.29885	8.26723	1.65861	10.4639	2.10376	12.3796
1.80557	2.55967	0.629427	3.85478	1.80663	2.55947	0.921402	5.79172	1.3117	8.2279	1.69523	10.6195	2.03769	11.8074	0.627805	3.94822	1.81369	2.62806	1.30071	8.15925	1.66167	10.3328	2.10461	12.2187
1.80033	2.56063	0.629735	3.8373	1.80141	2.56044	0.921918	5.71211	1.31629	8.13894	1.69671	10.4966	2.04047	11.6874	0.628686	3.89721	1.80774	2.62823	1.30255	8.05421	1.66485	10.2061	2.10542	12.0618
1.79503	2.56149	0.630154	3.81381	1.79612	2.56132	0.922347	5.63422	1.32099	8.05308	1.69835	10.3589	2.0429	11.5875	0.629554	3.84756	1.80179	2.62839	1.30438	7.95206	1.66814	10.0837	2.1062	11.9088
1.78966	2.56226	0.630684	3.78455	1.79076	2.56211	0.922697	5.55802	1.32577	7.9701	1.69995	10.2247	2.04495	11.5066	0.630417	3.79925	1.79583	2.62854	1.30621	7.85278	1.67154	9.96522	2.10685	11.7786
1.78421	2.56292	0.631326	3.74983	1.78532	2.5628	0.922974	5.48347	1.33062	7.88985	1.7015	10.094	2.04658	11.4437	0.63128	3.75228	1.78986	2.62869	1.30807	7.75634	1.67504	9.85056	2.1074	11.6698
1.77869	2.56349	0.632085	3.71003	1.77982	2.56338	0.923186	5.41056	1.33554	7.81212	1.70303	9.9666	2.0478	11.3979	0.632151	3.70662	1.78389	2.62883	1.30996	7.66272	1.67862	9.73949	2.10784	11.5814
1.77309	2.56395	0.632968	3.66557	1.77423	2.56386	0.923337	5.33925	1.34051	7.73677	1.70453	9.84247	2.04858	11.3689	0.633035	3.66226	1.77792	2.62897	1.3119	7.57191	1.68229	9.63182	2.10819	11.5124
1.76742	2.56431	0.633869	3.62239	1.76858	2.56424	0.923435	5.2695	1.34552	7.66363	1.70601	9.72153	2.04971	11.3275	0.633938	3.61917	1.77195	2.62911	1.31393	7.4839	1.68603	9.52738	2.10845	11.4622
1.76169	2.56458	0.634794	3.58046	1.76286	2.56453	0.923485	5.2013	1.35056	7.59255	1.7075	9.60371	2.05095	11.283	0.634865	3.57734	1.76597	2.62924	1.31604	7.39871	1.68984	9.42599	2.10861	11.4304
1.7559	2.56476	0.635746	3.53976	1.75708	2.56473	0.923494	5.13462	1.35562	7.52339	1.70899	9.48896	2.05265	11.2231	0.63582	3.53673	1.75998	2.62936	1.31827	7.31633	1.6937	9.32748	2.10885	11.3849
1.75005	2.56487	0.636731	3.50028	1.75125	2.56485	0.923465	5.06943	1.36068	7.45602	1.7105	9.3772	2.05482	11.1486	0.636807	3.49733	1.754	2.62948	1.32063	7.23677	1.69761	9.23172	2.10911	11.3358
1.74416	2.56491	0.637751	3.46197	1.74537	2.56491	0.923406	5.00569	1.36574	7.3903	1.71204	9.26839	2.05747	11.0601	0.63783	3.45912	1.74801	2.6296	1.32315	7.16006	1.70156	9.13854	2.10946	11.2698
1.73823	2.56489	0.63881	3.42482	1.73944	2.5649	0.92332	4.9434	1.37078	7.32612	1.71361	9.16248	2.06062	10.9586	0.638892	3.42206	1.74202	2.62972	1.32585	7.08619	1.70555	9.04781	2.10991	11.1875
1.73226	2.56481	0.639912	3.38881	1.73348	2.56483	0.923213	4.88251	1.3758	7.26336	1.71524	9.05941	2.06428	10.845	0.639997	3.38613	1.73603	2.62984	1.32876	7.01519	1.70956	8.9594	2.11046	11.0896
1.72626	2.56469	0.641059	3.3539	1.72749	2.56472	0.923089	4.823	1.38078	7.20191	1.71693	8.95913	2.06797	10.7343	0.641148	3.3513	1.73004	2.62995	1.33188	6.94707	1.71358	8.87318	2.11112	10.9771
1.72024	2.56453	0.642254	3.32007	1.72147	2.56457	0.922953	4.76484	1.38571	7.14167	1.71869	8.86161	2.0717	10.6264	0.642346	3.31755	1.72404	2.63006	1.33526	6.88184	1.71761	8.78904	2.11191	10.851
1.71419	2.56434	0.643499	3.2873	1.71542	2.56438	0.922809	4.70802	1.39058	7.08254	1.72053	8.7668	2.07546	10.5211	0.643595	3.28486	1.71805	2.63018	1.3389	6.8195	1.72164	8.70686	2.11273	10.7281
1.70812	2.56411	0.644796	3.25555	1.70936	2.56416	0.922661	4.65249	1.39538	7.02443	1.72246	8.67465	2.07924	10.4184	0.644897	3.25319	1.71205	2.63029	1.34282	6.76004	1.72566	8.62653	2.11359	10.6082
1.70203	2.56385	0.646148	3.22481	1.70328	2.56391	0.922513	4.59824	1.40009	6.96725	1.72449	8.58513	2.08303	10.3181	0.646252	3.22252	1.70605	2.6304	1.34704	6.70344	1.72967	8.54796	2.11451	10.4913
1.69593	2.56357	0.647555	3.19504	1.69718	2.56363	0.922368	4.54525	1.40472	6.91092	1.72664	8.49819	2.08682	10.2201	0.647664	3.19282	1.70006	2.63051	1.35158	6.64967	1.73365	8.47105	2.11549	10.3773
1.68982	2.56327	0.64902	3.16622	1.69106	2.56333	0.922229	4.49347	1.40925	6.85537	1.7289	8.41379	2.09062	10.1243	0.649133	3.16407	1.69406	2.63062	1.35645	6.59868	1.7376	8.3957	2.11653	10.2663
1.68369	2.56294	0.650543	3.13832	1.68494	2.56301	0.922101	4.44289	1.41366	6.80052	1.7313	8.3319	2.09441	10.0305	0.650661	3.13625	1.68806	2.63074	1.36164	6.55042	1.74152	8.32184	2.11765	10.158
1.67755	2.5626	0.652127	3.11133	1.6788	2.56267	0.921985	4.39349	1.41796	6.74632	1.73383	8.25246	2.09819	9.9388	0.652249	3.10932	1.68207	2.63085	1.36716	6.5048	1.74539	8.24939	2.11885	10.0525
1.67141	2.56224	0.653771	3.08521	1.67266	2.56232	0.921885	4.34524	1.42214	6.6927	1.73651	8.17543	2.10195	9.84897	0.653898	3.08327	1.67607	2.63097	1.37302	6.46174	1.74921	8.17827	2.12013	9.94962
1.66525	2.56187	0.655478	3.05994	1.6665	2.56195	0.921804	4.29811	1.42617	6.63961	1.73935	8.10077	2.10569	9.76096	0.655609	3.05806	1.67007	2.63109	1.37921	6.42112	1.75298	8.1084	2.1215	9.84942
1.65909	2.56148	0.657246	3.0355	1.66034	2.56156	0.921744	4.25209	1.43007	6.587	1.74234	8.02843	2.1094	9.67468	0.657383	3.03369	1.66408	2.63121	1.38571	6.38284	1.75668	8.03974	2.12297	9.75179
1.65292	2.56108	0.659078	3.01187	1.65418	2.56116	0.921708	4.20714	1.43383	6.53483	1.7455	7.95837	2.11307	9.59005	0.65922	3.01011	1.65809	2.63134	1.39253	6.34676	1.76032	7.9722	2.12455	9.65667
