Sym0		Asym0		Sym1		Sym2		Sym3		Sym4		Sym5		Asym1		Asym2		Asym3		Asym4		Asym5	
395  Points		394  Points		394  Points		388  Points		371  Points		361  Points		159  Points		395  Points		381  Points		376  Points		360  Points		172  Points	
Freq (MHz)	Vph (m/ms)	Freq (MHz)	Vph (m/ms)	Freq (MHz)	Vph (m/ms)	Freq (MHz)	Vph (m/ms)	Freq (MHz)	Vph (m/ms)	Freq (MHz)	Vph (m/ms)	Freq (MHz)	Vph (m/ms)	Freq (MHz)	Vph (m/ms)	Freq (MHz)	Vph (m/ms)	Freq (MHz)	Vph (m/ms)	Freq (MHz)	Vph (m/ms)	Freq (MHz)	Vph (m/ms)
2.20474	2.45821	0.346273	173.923	2.20123	2.45871	0.692249	606.012	1.1123	3891.75	1.38451	644.949	1.85383	3469.03	0.346137	426.191	0.741506	449.715	1.03838	586.45	1.48302	698.896	1.73055	3965.68
2.19972	2.45893	0.34687	80.6984	2.19621	2.45945	0.692491	200.74	1.11224	428.904	1.38476	310.896	1.85373	652.312	0.34651	111.077	0.741378	187.395	1.03862	254.688	1.48286	334.781	1.73067	630.762
2.19471	2.45968	0.347899	52.6662	2.19122	2.46021	0.692975	120.369	1.11207	226.925	1.38518	204.863	1.85351	359.962	0.34732	63.999	0.741146	118.325	1.03905	162.723	1.48259	220.075	1.73096	342.685
2.18972	2.46045	0.349352	39.1952	2.18624	2.461	0.693698	86.0189	1.1118	154.246	1.38577	152.805	1.85316	248.526	0.348558	45.0662	0.740813	86.4322	1.03967	119.601	1.48221	163.886	1.73142	235.293
2.18475	2.46124	0.351218	31.3014	2.18128	2.46181	0.694656	66.9749	1.11144	116.804	1.38652	121.878	1.85268	189.746	0.350214	34.8758	0.740382	68.0597	1.04047	94.5861	1.48172	130.531	1.73205	179.191
2.17979	2.46206	0.353481	26.1297	2.17634	2.46265	0.695843	54.8804	1.11098	93.9695	1.38744	101.394	1.85208	153.427	0.352276	28.5264	0.739859	56.1102	1.04144	78.2593	1.48114	108.438	1.73285	144.725
2.17486	2.46291	0.356124	22.4892	2.17142	2.46352	0.697253	46.5249	1.11043	78.586	1.38851	86.8306	1.85137	128.757	0.354727	24.2027	0.739249	47.7144	1.04259	66.7688	1.48046	92.7239	1.7338	121.408
2.16995	2.46378	0.359127	19.7946	2.16652	2.46441	0.698876	40.4113	1.1098	67.5163	1.38974	75.9485	1.85054	110.903	0.357549	21.077	0.73856	41.4907	1.04391	58.2462	1.47969	80.9736	1.73491	104.587
2.16505	2.46468	0.36247	17.7246	2.16164	2.46532	0.700705	35.7476	1.1091	59.1676	1.39111	67.5106	1.84962	97.3812	0.360722	18.718	0.7378	36.6919	1.04539	51.6757	1.47884	71.854	1.73617	91.8825
2.16017	2.4656	0.366131	16.0884	2.15677	2.46627	0.70273	32.0751	1.10832	52.6457	1.39263	60.7782	1.84859	86.7846	0.364223	16.8788	0.736978	32.8782	1.04702	46.4575	1.47791	64.5698	1.73757	81.9496
2.15532	2.46656	0.370086	14.7651	2.15193	2.46724	0.704938	29.1101	1.10748	47.4095	1.39427	55.2829	1.84748	78.2555	0.36803	15.4077	0.736104	29.7743	1.0488	42.2143	1.47691	58.617	1.73911	73.9722
2.15048	2.46753	0.374311	13.6748	2.1471	2.46823	0.70732	26.6675	1.10658	43.1127	1.39604	50.7134	1.8463	71.2422	0.37212	14.2066	0.735188	27.1988	1.05071	38.6974	1.47585	53.6609	1.74078	67.4258
2.14566	2.46854	0.378782	12.7623	2.1423	2.46926	0.709863	24.6215	1.10564	39.523	1.39793	46.8545	1.84504	65.3731	0.376469	13.209	0.734243	25.0274	1.05275	35.7357	1.47474	49.4703	1.74257	61.9578
2.14085	2.46957	0.383476	11.9885	2.13751	2.47031	0.712554	22.8834	1.10466	36.4792	1.39992	43.5531	1.84371	60.3892	0.381052	12.3685	0.733279	23.1721	1.05491	33.208	1.47359	45.8804	1.74448	57.3227
2.13607	2.47063	0.388368	11.3245	2.13273	2.47138	0.715382	21.3893	1.10366	33.8656	1.40202	40.6968	1.84234	56.104	0.385845	11.6514	0.732311	21.5688	1.05718	31.0258	1.47241	42.7709	1.74649	53.3442
2.1313	2.47171	0.393433	10.749	2.12798	2.47248	0.718331	20.0914	1.10264	31.5972	1.4042	38.2016	1.84092	52.3803	0.390825	11.0331	0.731351	20.1698	1.05954	29.1231	1.4712	40.0513	1.74859	49.8924
2.12655	2.47282	0.398649	10.2456	2.12324	2.47361	0.72139	18.9537	1.10161	29.6099	1.40647	36.0033	1.83947	49.1145	0.395967	10.4946	0.730414	18.9388	1.062	27.4497	1.46998	37.6529	1.75079	46.8693
2.12182	2.47395	0.403991	9.80164	2.11852	2.47476	0.724544	17.9485	1.10059	27.855	1.40881	34.052	1.83799	46.2271	0.401248	10.0217	0.729515	17.8477	1.06453	25.9666	1.46875	35.522	1.75307	44.2
2.1171	2.47511	0.409436	9.40713	2.11381	2.47593	0.72778	17.0538	1.09959	26.294	1.41122	32.3083	1.8365	43.6561	0.406643	9.60303	0.72867	16.8744	1.06714	24.6431	1.46753	33.6165	1.75542	41.826
2.1124	2.47629	0.414961	9.05407	2.10911	2.47713	0.731084	16.2525	1.09861	24.897	1.41368	30.7408	1.83501	41.3524	0.41213	9.22969	0.727894	16.0014	1.0698	23.4548	1.46633	31.9027	1.75783	39.7008
2.1077	2.47749	0.420543	8.73603	2.10442	2.47833	0.734442	15.5305	1.09767	23.6396	1.41619	29.324	1.83351	39.2764	0.417686	8.89448	0.727205	15.2145	1.07251	22.3819	1.46514	30.3532	1.7603	37.7873
2.10301	2.4787	0.426157	8.44775	2.09973	2.47954	0.73784	14.8765	1.09679	22.5023	1.41874	28.0372	1.83203	37.3963	0.423286	8.5916	0.726619	14.5022	1.07525	21.4083	1.464	28.9457	1.76281	36.0554
2.09831	2.4799	0.431782	8.18488	2.09502	2.48074	0.741265	14.2812	1.09596	21.469	1.42132	26.8633	1.83057	35.6857	0.428186	8.35025	0.726155	13.8549	1.07803	20.5208	1.46289	27.6619	1.76536	34.4804
2.09359	2.48109	0.437395	7.94381	2.09024	2.48187	0.744703	13.7368	1.09521	20.5265	1.42392	25.7878	1.82914	34.1229	0.432364	8.159	0.725831	13.2647	1.08082	19.7083	1.46184	26.4865	1.76795	33.0418
2.08879	2.48218	0.442971	7.72151	2.08532	2.48283	0.748139	13.2368	1.09454	19.6636	1.42653	24.7988	1.82775	32.6898	0.435813	8.00984	0.725666	12.7251	1.08361	18.9615	1.46085	25.4064	1.77056	31.7225
2.08379	2.48305	0.448489	7.51542	2.08008	2.48341	0.751561	12.7757	1.09397	18.8711	1.42915	23.8862	1.82641	31.3711	0.438533	7.89716	0.72568	12.2305	1.08641	18.2726	1.45994	24.4109	1.77318	30.5083
2.07842	2.48348	0.453925	7.32335	2.07442	2.48349	0.754956	12.3491	1.09351	18.1411	1.43176	23.0412	1.82512	30.1539	0.440526	7.81706	0.725893	11.7761	1.08919	17.635	1.4591	23.4906	1.77581	29.3869
2.07266	2.48344	0.459257	7.14346	2.06847	2.48323	0.75831	11.9528	1.09317	17.4668	1.43436	22.2566	1.82389	29.0271	0.441799	7.76696	0.726324	11.358	1.09195	17.043	1.45835	22.6376	1.77844	28.348
2.06665	2.48311	0.464464	6.97413	2.06238	2.48279	0.76161	11.5835	1.09296	16.8425	1.43694	21.526	1.82273	27.9811	0.443624	7.69646	0.726993	10.9725	1.09468	16.4917	1.4577	21.8451	1.78107	27.3827
2.06053	2.48264	0.469522	6.81401	2.05622	2.48228	0.764844	11.2383	1.09289	16.2631	1.43949	20.8437	1.82165	27.0079	0.4456	7.62177	0.72792	10.6168	1.09737	15.9768	1.45716	21.1071	1.78368	26.4834
2.05436	2.48211	0.474413	6.6619	2.05004	2.48172	0.768001	10.9147	1.09297	15.7244	1.44201	20.2051	1.82066	26.1003	0.448273	7.52327	0.729124	10.2881	1.10001	15.4947	1.45673	20.4185	1.78627	25.6433
2.04817	2.48155	0.479116	6.51679	2.04383	2.48114	0.771067	10.6103	1.09321	15.2226	1.44449	19.606	1.81976	25.2521	0.451625	7.40342	0.730621	9.98415	1.10259	15.0421	1.45643	19.7747	1.78883	24.8567
2.04196	2.48096	0.483615	6.37782	2.03762	2.48055	0.774033	10.3233	1.09363	14.7544	1.44692	19.0426	1.81895	24.4578	0.455632	7.26497	0.732429	9.70291	1.1051	14.6164	1.45625	19.1716	1.79136	24.1185
2.03575	2.48037	0.487893	6.24423	2.0314	2.47995	0.776889	10.0521	1.09423	14.3168	1.4493	18.5117	1.81826	23.7128	0.460252	7.11067	0.734561	9.44253	1.10755	14.2149	1.45621	18.6059	1.79385	23.4243
2.02953	2.47976	0.491937	6.1154	2.02518	2.47934	0.779624	9.79504	1.09502	13.9072	1.45161	18.0105	1.81767	23.0126	0.465432	6.94318	0.737031	9.20136	1.10991	13.8355	1.45631	18.0743	1.79629	22.7702
2.02331	2.47915	0.495738	5.99081	2.01897	2.47873	0.78223	9.5509	1.096	13.5234	1.45386	17.5363	1.8172	22.3536	0.470461	6.78466	0.739848	8.9779	1.11219	13.4763	1.45656	17.5741	1.79868	22.1526
2.0171	2.47854	0.499287	5.87002	2.01275	2.47811	0.784699	9.31852	1.09719	13.1633	1.45604	17.0871	1.81685	21.7325	0.475317	6.63395	0.743019	8.7708	1.11438	13.1355	1.45696	17.1028	1.80102	21.5684
2.01088	2.47793	0.50258	5.75268	2.00653	2.4775	0.787025	9.09687	1.09858	12.825	1.45814	16.6606	1.81663	21.1462	0.479983	6.49006	0.746546	8.57878	1.11647	12.8117	1.45752	16.6582	1.8033	21.015
2.00466	2.47731	0.505616	5.63851	2.00032	2.47688	0.789201	8.88507	1.10019	12.5069	1.46017	16.2552	1.81654	20.5921	0.484441	6.35216	0.749913	8.42285	1.11845	12.5035	1.45824	16.2382	1.80551	20.4898
1.99845	2.47669	0.508397	5.52729	1.9941	2.47626	0.791224	8.6823	1.10202	12.2075	1.46211	15.8692	1.81658	20.0677	0.488676	6.21952	0.752996	8.29773	1.12034	12.2096	1.45913	15.8411	1.80766	19.9907
1.99224	2.47608	0.510927	5.41886	1.98789	2.47564	0.792859	8.51242	1.10406	11.9253	1.46397	15.5011	1.81676	19.5708	0.492675	6.09153	0.755693	8.19937	1.12212	11.929	1.46018	15.4651	1.80973	19.5156
1.98603	2.47546	0.513214	5.3131	1.98169	2.47503	0.794157	8.37228	1.10633	11.6592	1.46573	15.1497	1.81708	19.0995	0.496429	5.96768	0.757918	8.12472	1.12378	11.6607	1.4614	15.1088	1.81173	19.0629
1.97982	2.47484	0.515269	5.20992	1.97549	2.47441	0.795164	8.25948	1.10881	11.408	1.46741	14.8138	1.81754	18.652	0.49993	5.84757	0.759606	8.07151	1.12534	11.4038	1.46279	14.7707	1.81365	18.6307
1.97362	2.47423	0.517104	5.10927	1.96929	2.4738	0.795917	8.17217	1.11151	11.1706	1.469	14.4923	1.81815	18.2266	0.503174	5.73085	0.760709	8.03819	1.12679	11.1576	1.46434	14.4498	1.81549	18.2178
1.96742	2.47361	0.518731	5.0111	1.96309	2.47319	0.796447	8.109	1.11443	10.946	1.4705	14.1842	1.8189	17.8219	0.506161	5.61725	0.762326	7.99125	1.12813	10.9213	1.46607	14.1448	1.81725	17.8228
1.96123	2.473	0.520167	4.91541	1.9569	2.47258	0.796775	8.06901	1.11756	10.7335	1.47191	13.8887	1.81979	17.4364	0.508894	5.50657	0.764124	7.9415	1.12936	10.6943	1.46796	13.8546	1.81892	17.4445
1.95504	2.47239	0.521426	4.82217	1.95072	2.47197	0.797233	8.01213	1.12089	10.5321	1.47324	13.6049	1.82083	17.069	0.511378	5.39866	0.766637	7.87588	1.13049	10.4761	1.47001	13.5782	1.82052	17.0818
1.94886	2.47178	0.522526	4.73137	1.94454	2.47136	0.79771	7.95108	1.12442	10.341	1.47447	13.3323	1.82201	16.7184	0.51362	5.29339	0.769925	7.79613	1.13151	10.2661	1.47222	13.3149	1.82204	16.7337
1.94268	2.47118	0.523481	4.64301	1.93836	2.47076	0.798328	7.86932	1.12814	10.1597	1.47562	13.07	1.82333	16.3837	0.515633	5.19069	0.774059	7.70428	1.13244	10.0639	1.47459	13.0637	1.82347	16.3994
1.93651	2.47058	0.524307	4.55708	1.93219	2.47016	0.799055	7.76796	1.13204	9.98728	1.4767	12.8176	1.82479	16.0637	0.517427	5.09051	0.779122	7.60252	1.13328	9.86897	1.47711	12.8238	1.82483	16.0779
1.93034	2.46998	0.525022	4.47357	1.92603	2.46956	0.799855	7.64829	1.13612	9.82329	1.4777	12.5744	1.82638	15.7577	0.519017	4.99282	0.785202	7.49314	1.13404	9.68103	1.47977	12.5947	1.82611	15.7686
1.92417	2.46938	0.525639	4.39247	1.91987	2.46897	0.800686	7.51181	1.14036	9.66709	1.47863	12.34	1.82811	15.4647	0.520418	4.89759	0.791554	7.39102	1.13472	9.49973	1.48257	12.3754	1.82731	15.4708
1.91801	2.46879	0.526173	4.31376	1.91371	2.46838	0.801498	7.3601	1.14475	9.51817	1.47949	12.1139	1.82996	15.184	0.521646	4.80481	0.798161	7.29552	1.13534	9.32475	1.4855	12.1656	1.82845	15.1838
1.91186	2.4682	0.526639	4.23742	1.90756	2.46779	0.802165	7.21339	1.14929	9.37602	1.4803	11.8958	1.83193	14.9148	0.522717	4.71447	0.805002	7.20607	1.13589	9.15581	1.48855	11.9645	1.82952	14.9071
1.90572	2.46761	0.527047	4.16341	1.90142	2.46721	0.802692	7.0714	1.15396	9.24016	1.48106	11.6852	1.83402	14.6565	0.523646	4.62657	0.812059	7.12214	1.1364	8.99268	1.49172	11.7717	1.83053	14.64
1.89958	2.46703	0.527412	4.09171	1.89528	2.46663	0.803084	6.9339	1.15874	9.11016	1.48178	11.4819	1.83622	14.4084	0.524451	4.5411	0.819313	7.04322	1.13688	8.83513	1.495	11.5865	1.83148	14.3822
1.89344	2.46646	0.527703	4.03108	1.88916	2.46606	0.803348	6.8007	1.16364	8.98562	1.48246	11.2854	1.83853	14.1699	0.525146	4.45805	0.826743	6.96887	1.13728	8.70224	1.49837	11.4087	1.83238	14.1333
1.88731	2.46589	0.527937	3.98075	1.88303	2.46549	0.803491	6.6716	1.16862	8.86614	1.48312	11.0955	1.84093	13.9405	0.525746	4.37741	0.834332	6.89866	1.13761	8.5921	1.50183	11.2376	1.83324	13.8926
1.88119	2.46533	0.528123	3.94004	1.87692	2.46493	0.803521	6.54642	1.17369	8.75136	1.48377	10.912	1.84342	13.7197	0.526266	4.29914	0.842059	6.8322	1.13789	8.50316	1.50537	11.0729	1.83407	13.66
1.87508	2.46477	0.528267	3.90844	1.87081	2.46438	0.803444	6.42501	1.17815	8.65491	1.48441	10.7346	1.846	13.5069	0.52672	4.22324	0.849906	6.76914	1.13811	8.43419	1.50898	10.9142	1.83486	13.4351
1.86897	2.46422	0.528373	3.88553	1.86471	2.46383	0.803268	6.30722	1.182	8.57516	1.48506	10.563	1.84865	13.3017	0.527119	4.14967	0.857854	6.70914	1.13828	8.38422	1.51265	10.7611	1.83563	13.2174
1.86288	2.46367	0.52844	3.87101	1.85862	2.46329	0.803	6.19292	1.18519	8.51082	1.48574	10.3972	1.85137	13.1037	0.527477	4.07841	0.865882	6.65189	1.13839	8.35257	1.51636	10.6134	1.8364	13.0068
1.85679	2.46313	0.528537	3.85034	1.85253	2.46276	0.802649	6.08198	1.18773	8.46093	1.48644	10.2368	1.85414	12.9125	0.527804	4.00941	0.873971	6.5971	1.13854	8.30752	1.52012	10.4705	1.83715	12.8029
1.8507	2.4626	0.528642	3.82812	1.84646	2.46224	0.802221	5.97429	1.18959	8.42478	1.4872	10.0818	1.85697	12.7277	0.528111	3.94263	0.882102	6.54449	1.13872	8.25914	1.52389	10.3323	1.83791	12.6055
1.84463	2.46208	0.528786	3.79834	1.84039	2.46172	0.801725	5.86972	1.19079	8.40188	1.48801	9.93198	1.85984	12.5489	0.528407	3.87804	0.890254	6.4938	1.13897	8.19435	1.52769	10.1985	1.83869	12.4144
1.83857	2.46156	0.528972	3.76138	1.83433	2.46121	0.801166	5.76819	1.19251	8.36927	1.4889	9.78717	1.86274	12.3758	0.528702	3.81559	0.898404	6.44478	1.13931	8.11401	1.53148	10.0688	1.83949	12.2293
1.83251	2.46106	0.529203	3.71771	1.82828	2.46071	0.800552	5.66958	1.19439	8.33422	1.48987	9.64726	1.86567	12.2081	0.529003	3.75523	0.906531	6.39718	1.13974	8.01924	1.53528	9.94284	1.84032	12.05
1.82646	2.46056	0.529488	3.6679	1.82224	2.46022	0.79989	5.57381	1.19694	8.28721	1.49095	9.51213	1.86861	12.0454	0.529319	3.69692	0.914609	6.35079	1.14032	7.91136	1.53905	9.82052	1.8412	11.8763
1.82043	2.46008	0.529839	3.61259	1.81621	2.45974	0.799186	5.48078	1.20017	8.22879	1.49215	9.38167	1.87155	11.8876	0.529656	3.6406	0.922615	6.30535	1.14108	7.79188	1.54279	9.70156	1.84214	11.708
1.8144	2.4596	0.53022	3.55919	1.81019	2.45928	0.798447	5.39042	1.20406	8.15962	1.49348	9.25577	1.8745	11.7343	0.530021	3.58623	0.93052	6.26065	1.14197	7.67699	1.54649	9.58575	1.84313	11.5451
1.80838	2.45914	0.530637	3.50766	1.80418	2.45882	0.797678	5.30262	1.20862	8.08039	1.49497	9.13433	1.87743	11.5853	0.530419	3.53376	0.938296	6.21646	1.14301	7.56667	1.55014	9.47289	1.84421	11.3872
1.80238	2.45869	0.531097	3.45796	1.79818	2.45838	0.796886	5.21733	1.21382	7.99185	1.49661	9.01727	1.88034	11.4404	0.530856	3.48313	0.945911	6.17255	1.14425	7.4609	1.55373	9.36279	1.84537	11.2343
1.79638	2.45825	0.531602	3.41002	1.7922	2.45795	0.796075	5.13446	1.21896	7.90564	1.49819	8.91874	1.88323	11.2993	0.531338	3.43429	0.953333	6.12871	1.14571	7.3597	1.55724	9.25528	1.84663	11.0863
1.7904	2.45782	0.532159	3.3638	1.78622	2.45753	0.795252	5.05393	1.22405	7.82155	1.49965	8.83726	1.88607	11.1619	0.531868	3.3872	0.960527	6.0847	1.14743	7.26307	1.56067	9.15019	1.84799	10.9429
1.78443	2.45741	0.53277	3.31925	1.78026	2.45713	0.794421	4.97569	1.22905	7.7394	1.50095	8.77162	1.88887	11.0279	0.532451	3.3418	0.967458	6.04031	1.14944	7.17105	1.56401	9.04736	1.84947	10.804
1.77847	2.45701	0.533439	3.27632	1.77431	2.45674	0.793586	4.89966	1.23395	7.65898	1.50202	8.7208	1.89162	10.8971	0.53309	3.29805	0.97409	5.99535	1.15177	7.08366	1.56684	8.9595	1.85107	10.6695
1.77252	2.45662	0.53417	3.23497	1.76837	2.45637	0.792754	4.82577	1.23874	7.58014	1.50285	8.68404	1.89431	10.7695	0.533789	3.2559	0.980388	5.94962	1.15447	7.00091	1.56918	8.8858	1.85281	10.5394
1.76659	2.45626	0.534966	3.19514	1.76245	2.45601	0.791927	4.75396	1.2434	7.50272	1.50339	8.66078	1.89693	10.6447	0.534551	3.2153	0.986319	5.90295	1.15757	6.92282	1.57107	8.82566	1.85469	10.4134
1.76067	2.45591	0.535828	3.15678	1.75654	2.45567	0.79111	4.68418	1.24791	7.42655	1.50419	8.62771	1.89948	10.5228	0.535379	3.1762	0.991855	5.85523	1.16109	6.84936	1.57253	8.77861	1.85672	10.2915
1.75476	2.45557	0.53676	3.11986	1.75064	2.45535	0.790307	4.61635	1.25226	7.3515	1.50509	8.59225	1.90195	10.4035	0.536275	3.13855	0.996971	5.80634	1.16506	6.78048	1.57359	8.74428	1.85891	10.1735
1.74887	2.45526	0.537764	3.08433	1.74476	2.45505	0.789522	4.55043	1.25644	7.27745	1.50636	8.54482	1.90433	10.2867	0.537242	3.10231	1.00165	5.75624	1.1695	6.71611	1.57425	8.72242	1.86126	10.0593
1.743	2.45496	0.538842	3.05015	1.7389	2.45476	0.788758	4.48637	1.26043	7.20428	1.50804	8.48614	1.90662	10.1722	0.538282	3.06745	1.00589	5.70493	1.17441	6.6561	1.5752	8.69116	1.86378	9.94889
1.73714	2.45468	0.539995	3.01727	1.73305	2.4545	0.788018	4.4241	1.26422	7.13189	1.5102	8.41709	1.90881	10.0601	0.539396	3.0339	1.00968	5.65246	1.17979	6.6003	1.57622	8.6574	1.86647	9.84204
1.7313	2.45443	0.541225	2.98565	1.72722	2.45426	0.787306	4.36357	1.2678	7.0602	1.5129	8.33871	1.91091	9.95015	0.540587	3.00164	1.01303	5.5989	1.18564	6.54849	1.57757	8.61181	1.86934	9.73866
1.72547	2.4542	0.542533	2.95525	1.7214	2.45405	0.786625	4.30475	1.27117	6.98912	1.51624	8.25216	1.9129	9.84229	0.541855	2.97063	1.01596	5.54439	1.19194	6.50045	1.57923	8.55471	1.87238	9.63866
1.71966	2.45399	0.543921	2.92603	1.71561	2.45385	0.785977	4.24757	1.27431	6.91861	1.51984	8.16914	1.9148	9.73643	0.543202	2.94081	1.01849	5.48908	1.19867	6.45591	1.58118	8.48644	1.8756	9.5419
1.71387	2.4538	0.545389	2.89796	1.70983	2.45369	0.785366	4.19199	1.27722	6.84862	1.52369	8.08952	1.91658	9.6325	0.544629	2.91216	1.02065	5.43314	1.2058	6.41461	1.58336	8.40741	1.879	9.44828
1.70809	2.45364	0.546939	2.871	1.70407	2.45354	0.784793	4.13797	1.27989	6.7791	1.5278	8.01319	1.91826	9.53043	0.546137	2.88463	1.02246	5.37673	1.21331	6.37627	1.58572	8.31806	1.88258	9.35769
1.70234	2.45351	0.548572	2.84511	1.69833	2.45343	0.784262	4.08547	1.28234	6.71005	1.53217	7.94001	1.91984	9.43016	0.547728	2.8582	1.02395	5.32004	1.22116	6.34063	1.58794	8.2301	1.88633	9.27
1.6966	2.4534	0.550288	2.82026	1.6926	2.45334	0.783775	4.03443	1.28455	6.64144	1.53679	7.86985	1.92131	9.33163	0.549401	2.83282	1.02516	5.26324	1.22932	6.30744	1.59002	8.14345	1.88973	9.19586
1.69089	2.45332	0.552089	2.79642	1.6869	2.45328	0.783333	3.98483	1.28654	6.57329	1.54166	7.80259	1.92251	9.24716	0.551159	2.80847	1.02612	5.20647	1.23776	6.27645	1.59194	8.05808	1.89273	9.13429
1.68519	2.45327	0.553974	2.77355	1.68122	2.45326	0.78294	3.93662	1.2883	6.5056	1.54677	7.73807	1.92348	9.17614	0.553	2.78511	1.02685	5.14989	1.24646	6.24745	1.59372	7.97395	1.89528	9.08445
1.67952	2.45325	0.555945	2.75163	1.67557	2.45326	0.782596	3.88977	1.28985	6.43838	1.55211	7.67617	1.92424	9.1181	0.554928	2.76271	1.02738	5.09361	1.25538	6.22022	1.59535	7.89102	1.89734	9.04573
1.67387	2.45327	0.558003	2.73063	1.66993	2.4533	0.782305	3.84423	1.29118	6.37167	1.55767	7.61675	1.92481	9.07263	0.556941	2.74125	1.02774	5.03775	1.2645	6.19459	1.59684	7.80927	1.89888	9.01763
1.66824	2.45332	0.560149	2.71053	1.66432	2.45337	0.782067	3.79998	1.29232	6.30547	1.56344	7.55967	1.92522	9.03944	0.559042	2.72069	1.02794	4.98239	1.27379	6.17038	1.5982	7.72868	1.89987	8.99981
1.66264	2.4534	0.562521	2.69195	1.65873	2.45348	0.781885	3.75697	1.29326	6.23983	1.5694	7.50479	1.92547	9.01831	0.561232	2.70101	1.02801	4.92763	1.28324	6.14744	1.59942	7.64925	1.90132	8.97442
1.65706	2.45352	0.564712	2.67292	1.65317	2.45363	0.78176	3.71518	1.29402	6.17476	1.57556	7.45199	1.92583	8.98807	0.563512	2.6822	1.02797	4.87352	1.29283	6.12564	1.60052	7.57097	1.90291	8.94711
1.6515	2.45368	0.567134	2.65538	1.64763	2.45381	0.781694	3.67457	1.29462	6.11031	1.58188	7.40113	1.92621	8.95539	0.565885	2.66424	1.02783	4.82012	1.30252	6.10485	1.60151	7.49383	1.90509	8.91044
1.64597	2.45387	0.569655	2.63868	1.64212	2.45403	0.781688	3.63512	1.29505	6.0465	1.58836	7.35209	1.92671	8.91127	0.568355	2.64711	1.0276	4.76748	1.31232	6.08495	1.60238	7.41783	1.90791	8.86485
1.64047	2.45411	0.572282	2.62281	1.63663	2.4543	0.781745	3.59679	1.29533	5.98336	1.59499	7.30475	1.92731	8.856	0.570926	2.63081	1.02731	4.71563	1.32219	6.06585	1.60316	7.343	1.91138	8.81082
1.63499	2.45438	0.575024	2.6078	1.63117	2.4546	0.781865	3.55955	1.29547	5.92091	1.60175	7.25899	1.928	8.78993	0.573608	2.61536	1.02695	4.6646	1.33214	6.04744	1.60385	7.26934	1.91555	8.74895
