Sym0		Asym0		Sym1		Sym2		Asym1		Asym2	
362  Points		364  Points		296  Points		177  Points		307  Points		172  Points	
Freq (MHz)	Vgr (m/ms)	Freq (MHz)	Vgr (m/ms)	Freq (MHz)	Vgr (m/ms)	Freq (MHz)	Vgr (m/ms)	Freq (MHz)	Vgr (m/ms)	Freq (MHz)	Vgr (m/ms)
0.00265834	7.4468	0.000182572	0.346915	0.444278	-0.0339384	0.721698	0.0901058	0.360844	0.0657015	0.888562	-0.0499163
0.00723322	7.44627	0.000395696	0.412815	0.444258	-0.0480237	0.721753	0.129668	0.360884	0.124465	0.888531	-0.0741557
0.0118074	7.44487	0.000689791	0.544425	0.444219	-0.0759507	0.721857	0.208811	0.360997	0.241885	0.888471	-0.122548
0.0163806	7.44275	0.00106462	0.675352	0.444164	-0.10348	0.72201	0.287787	0.361182	0.358872	0.88838	-0.17068
0.0209522	7.43994	0.00151958	0.805357	0.444092	-0.130658	0.722211	0.36643	0.361438	0.475325	0.888261	-0.218405
0.0255219	7.43645	0.00205415	0.934407	0.444004	-0.157357	0.72246	0.444741	0.361766	0.591046	0.888112	-0.265535
0.0300893	7.43224	0.00266767	1.06221	0.443899	-0.183428	0.722757	0.522608	0.362164	0.705857	0.887935	-0.312032
0.0346538	7.42736	0.00335927	1.18876	0.443778	-0.208691	0.723102	0.599923	0.362633	0.819625	0.887729	-0.357706
0.0392151	7.42173	0.00412828	1.31388	0.443643	-0.233113	0.723494	0.676687	0.363171	0.932085	0.887495	-0.402514
0.0437727	7.41534	0.00497361	1.43738	0.443492	-0.256631	0.723933	0.752793	0.363778	1.04326	0.887234	-0.446367
0.0483262	7.40824	0.00589436	1.55921	0.443327	-0.27912	0.724419	0.828142	0.364453	1.15287	0.886947	-0.489085
0.0528751	7.40036	0.00688938	1.67923	0.443149	-0.300438	0.724951	0.90275	0.365195	1.26079	0.886633	-0.530646
0.0574189	7.39171	0.0079576	1.7973	0.442958	-0.320415	0.725528	0.976545	0.366002	1.36699	0.886295	-0.570892
0.0619572	7.3823	0.0090977	1.91338	0.442755	-0.339152	0.726151	1.04938	0.366874	1.47121	0.885932	-0.609842
0.0664894	7.37202	0.0103085	2.02747	0.442541	-0.356411	0.726818	1.12119	0.36781	1.57346	0.885545	-0.647421
0.0710151	7.36092	0.0115888	2.13934	0.442317	-0.372156	0.727528	1.19204	0.368808	1.67355	0.885136	-0.683478
0.0755337	7.34894	0.0129371	2.24901	0.442084	-0.386317	0.728282	1.26188	0.369866	1.77142	0.884706	-0.717938
0.0800446	7.33608	0.0143521	2.3565	0.441843	-0.398646	0.729079	1.33058	0.370984	1.86707	0.884254	-0.750869
0.0845474	7.32236	0.0158325	2.46162	0.441594	-0.409307	0.729917	1.39812	0.37216	1.9603	0.883783	-0.782186
0.0890414	7.30769	0.0173767	2.56434	0.44134	-0.418078	0.730797	1.46444	0.373393	2.05113	0.883293	-0.81172
0.0935262	7.29201	0.0189833	2.6648	0.441081	-0.424845	0.731716	1.52955	0.37468	2.13947	0.882786	-0.839574
0.098001	7.27532	0.0206509	2.76288	0.440818	-0.429604	0.732676	1.59345	0.376021	2.22529	0.882261	-0.865735
0.102465	7.2576	0.022378	2.85849	0.440553	-0.432234	0.733674	1.65605	0.377414	2.30852	0.881722	-0.890066
0.106918	7.23883	0.0241631	2.95176	0.440287	-0.43272	0.734711	1.71727	0.378858	2.38923	0.881168	-0.912624
0.111359	7.21893	0.0260047	3.04266	0.440021	-0.430914	0.735784	1.77717	0.38035	2.46734	0.880601	-0.933416
0.115788	7.19781	0.0279015	3.13115	0.439757	-0.426746	0.736894	1.83577	0.381889	2.54269	0.880021	-0.952339
0.120203	7.17556	0.0298519	3.21727	0.439497	-0.420189	0.73804	1.89298	0.383474	2.61553	0.87943	-0.969413
0.124605	7.15204	0.0318545	3.30109	0.439241	-0.411183	0.73922	1.94875	0.385103	2.68578	0.87883	-0.984679
0.128991	7.12711	0.0339079	3.38253	0.438992	-0.399614	0.740434	2.00321	0.386774	2.75332	0.878221	-0.998106
0.133362	7.10092	0.0360106	3.46167	0.43875	-0.385362	0.741681	2.05625	0.388486	2.81829	0.877604	-1.00974
0.137716	7.07331	0.0381612	3.53863	0.438518	-0.368411	0.742961	2.10779	0.390237	2.88071	0.87698	-1.01957
0.142052	7.04419	0.0403584	3.61335	0.438297	-0.348726	0.744271	2.158	0.392025	2.94046	0.876351	-1.02757
0.146371	7.01361	0.0426009	3.68582	0.43809	-0.326241	0.745612	2.20678	0.39385	2.99764	0.875717	-1.03378
0.15067	6.98132	0.0448872	3.75623	0.437897	-0.300819	0.746983	2.25412	0.395709	3.05236	0.875081	-1.03822
0.154949	6.9474	0.0472161	3.82451	0.43772	-0.272414	0.748382	2.30003	0.3976	3.10458	0.874442	-1.04087
0.159206	6.91178	0.0495863	3.89066	0.437562	-0.240929	0.749809	2.34454	0.399523	3.15427	0.873802	-1.04172
0.163441	6.87429	0.0519965	3.95485	0.437424	-0.206283	0.751263	2.38769	0.401476	3.20155	0.873162	-1.04088
0.167652	6.83499	0.0544455	4.01705	0.437308	-0.168538	0.752742	2.42945	0.403457	3.24646	0.872523	-1.0383
0.171839	6.79369	0.0569322	4.07735	0.437217	-0.127481	0.754248	2.46975	0.405465	3.28897	0.871886	-1.03404
0.176	6.75031	0.0594553	4.13585	0.437152	-0.0830219	0.755777	2.5087	0.407498	3.3291	0.871252	-1.02808
0.180133	6.70477	0.0620138	4.19242	0.437115	-0.0352032	0.75733	2.54628	0.409555	3.36694	0.870623	-1.02048
0.184238	6.65711	0.0646065	4.24726	0.437108	0.0161201	0.758906	2.58246	0.411635	3.40262	0.869998	-1.01127
0.188312	6.60722	0.0672323	4.3004	0.437135	0.071009	0.760503	2.61738	0.413736	3.436	0.86938	-1.00031
0.192356	6.55487	0.0698903	4.3518	0.437196	0.12958	0.762121	2.65089	0.415857	3.46722	0.868769	-0.987814
0.196366	6.50005	0.0725793	4.40162	0.437294	0.191851	0.76376	2.68304	0.417996	3.49633	0.868167	-0.973829
0.200342	6.44273	0.0752985	4.44982	0.437431	0.257853	0.765418	2.71402	0.420153	3.52323	0.867573	-0.958189
0.204282	6.38285	0.0780467	4.49648	0.437611	0.327656	0.767095	2.74364	0.422325	3.54814	0.866989	-0.941014
0.208185	6.32029	0.0808232	4.54168	0.437834	0.401392	0.768789	2.77191	0.424512	3.57109	0.866417	-0.922327
0.212048	6.25493	0.083627	4.58544	0.438104	0.479108	0.770501	2.799	0.426713	3.59199	0.865856	-0.90217
0.21587	6.18674	0.0864573	4.62776	0.438423	0.560784	0.772228	2.82487	0.428925	3.61092	0.865308	-0.880517
0.21965	6.11579	0.0893131	4.66873	0.438793	0.646493	0.773971	2.84949	0.431149	3.628	0.864774	-0.857315
0.223385	6.04186	0.0921937	4.70836	0.439217	0.736159	0.775729	2.87285	0.433383	3.64316	0.864255	-0.832794
0.227073	5.96499	0.0950982	4.74674	0.439697	0.829961	0.777501	2.89504	0.435626	3.65648	0.863751	-0.806857
0.230714	5.88523	0.0980259	4.78396	0.440237	0.927814	0.779286	2.91607	0.437876	3.66802	0.863263	-0.779418
0.234304	5.80246	0.100976	4.81985	0.440837	1.02966	0.781084	2.93594	0.440132	3.67778	0.862793	-0.750645
0.237843	5.71679	0.103948	4.85464	0.441502	1.13549	0.782894	2.95466	0.442395	3.68585	0.862341	-0.720535
0.241328	5.62819	0.106941	4.88835	0.442233	1.2453	0.784715	2.97224	0.444661	3.69223	0.861908	-0.689082
0.244758	5.53675	0.109954	4.92089	0.443032	1.35895	0.786546	2.98872	0.446931	3.69686	0.861494	-0.65628
0.248131	5.44251	0.112987	4.95242	0.443902	1.47628	0.788387	3.00414	0.449203	3.69991	0.861102	-0.62211
0.251445	5.34566	0.116039	4.98295	0.444846	1.5973	0.790237	3.01842	0.451477	3.70135	0.86073	-0.586759
0.254699	5.24627	0.11911	5.01244	0.445865	1.72172	0.792095	3.03167	0.453751	3.70122	0.860381	-0.55016
0.257891	5.14447	0.122198	5.04101	0.446961	1.84938	0.793962	3.04394	0.456025	3.69963	0.860054	-0.512171
0.26102	5.04061	0.125303	5.06869	0.448137	1.98018	0.795835	3.05515	0.458297	3.69644	0.859751	-0.473073
0.264085	4.93475	0.128426	5.09541	0.449394	2.1137	0.797716	3.06535	0.460567	3.69185	0.859473	-0.432753
0.267084	4.82711	0.131564	5.12129	0.450734	2.24968	0.799602	3.07453	0.462833	3.68579	0.85922	-0.391212
0.270016	4.71813	0.134718	5.1464	0.452158	2.38789	0.801493	3.08278	0.465095	3.67832	0.858992	-0.348562
0.272881	4.60801	0.137887	5.17062	0.453668	2.52802	0.80339	3.09007	0.467353	3.66949	0.858791	-0.304694
0.275678	4.49709	0.141071	5.19408	0.455265	2.66966	0.80529	3.09642	0.469604	3.65928	0.858618	-0.259723
0.278406	4.38577	0.144269	5.21678	0.456948	2.81243	0.807194	3.10191	0.471849	3.64784	0.858472	-0.213658
0.281066	4.27432	0.147481	5.23874	0.45872	2.95601	0.809101	3.10644	0.474086	3.63509	0.858355	-0.166512
0.283658	4.16315	0.150706	5.26001	0.46058	3.09988	0.811011	3.11016	0.476315	3.62102	0.858268	-0.118319
0.286181	4.05267	0.153944	5.28054	0.462529	3.24366	0.812923	3.11296	0.478535	3.60577	0.85821	-0.0691392
0.288637	3.94324	0.157194	5.3004	0.464566	3.38704	0.814836	3.11488	0.480745	3.58938	0.858183	-0.0188839
0.291026	3.83523	0.160456	5.31967	0.466691	3.52952	0.81675	3.11605	0.482945	3.57181	0.858187	0.0323012
0.29335	3.72907	0.16373	5.33832	0.468902	3.67074	0.818664	3.1164	0.485134	3.55311	0.858222	0.0844645
0.295608	3.62494	0.167015	5.35631	0.471201	3.81034	0.820579	3.11598	0.487311	3.53338	0.858291	0.137585
0.297525	3.53624	0.170311	5.37374	0.473584	3.9479	0.822493	3.11481	0.489475	3.51257	0.858391	0.191507
0.299122	3.46224	0.173618	5.39059	0.47573	4.06588	0.824406	3.11281	0.491627	3.49073	0.858526	0.246368
0.300417	3.40219	0.176935	5.40686	0.477608	4.16498	0.826318	3.11013	0.493764	3.46793	0.858694	0.301996
0.301425	3.35568	0.180261	5.42263	0.479195	4.24575	0.828227	3.10678	0.495888	3.4442	0.858897	0.358491
0.302158	3.32196	0.183598	5.43783	0.480471	4.30862	0.830135	3.10274	0.497996	3.41964	0.859135	0.41572
0.302622	3.30067	0.186943	5.45257	0.481422	4.35462	0.83204	3.098	0.499821	3.39744	0.859408	0.473638
0.303286	3.27031	0.190297	5.46685	0.482035	4.38384	0.833941	3.09263	0.501367	3.37812	0.859717	0.532383
0.304	3.23771	0.19366	5.48051	0.482924	4.42524	0.835839	3.08666	0.502639	3.36169	0.860062	0.591666
0.304959	3.19429	0.197031	5.49383	0.4839	4.4699	0.837734	3.08005	0.50364	3.34858	0.860444	0.651585
0.306154	3.14055	0.20041	5.50671	0.485243	4.53001	0.839624	3.07294	0.504374	3.3388	0.860862	0.712106
0.307573	3.07755	0.203797	5.51903	0.486967	4.60474	0.841509	3.06528	0.504842	3.33254	0.861319	0.773167
0.309201	3.00639	0.207191	5.531	0.489089	4.69327	0.84339	3.05707	0.505514	3.32342	0.861812	0.834753
0.311024	2.92851	0.210593	5.54262	0.491629	4.79441	0.845266	3.0483	0.506242	3.31324	0.862344	0.896721
0.312799	2.85481	0.214001	5.55375	0.494609	4.90693	0.847136	3.03911	0.507229	3.29954	0.862914	0.95912
0.314531	2.7853	0.217416	5.56445	0.497658	5.0155	0.849	3.0295	0.508471	3.28193	0.863523	1.02194
0.316222	2.72005	0.220838	5.57485	0.500772	5.11994	0.850858	3.01949	0.509963	3.2602	0.86417	1.08503
0.317873	2.65916	0.224266	5.58488	0.503949	5.22026	0.85271	3.00904	0.511702	3.23437	0.864856	1.14835
0.319489	2.60261	0.2277	5.59449	0.507186	5.3164	0.854555	2.99823	0.51368	3.20412	0.865581	1.21202
0.321071	2.5504	0.23114	5.60373	0.510481	5.40846	0.856394	2.98717	0.515639	3.17339	0.866345	1.27581
0.322622	2.50241	0.234585	5.61265	0.513831	5.49626	0.858225	2.97571	0.517579	3.14219	0.867148	1.33964
0.324146	2.45859	0.238036	5.62127	0.517234	5.57998	0.86005	2.96401	0.5195	3.11055	0.867991	1.40364
0.325643	2.41885	0.241492	5.62951	0.520687	5.65966	0.861867	2.95216	0.521401	3.0785	0.868873	1.46767
0.327118	2.38315	0.244953	5.63744	0.524188	5.73526	0.863677	2.94001	0.523282	3.04604	0.869794	1.53163
0.328571	2.35131	0.247973	5.64407	0.527734	5.80706	0.865479	2.92772	0.525143	3.01338	0.870755	1.59558
0.330007	2.32317	0.25055	5.64957	0.531323	5.87506	0.867274	2.91535	0.526984	2.98043	0.871755	1.65938
0.331426	2.29877	0.252683	5.65401	0.534952	5.93921	0.869061	2.90283	0.528805	2.9473	0.872794	1.72301
0.332831	2.27785	0.25437	5.65751	0.53862	5.99973	0.870841	2.89022	0.530606	2.91402	0.873872	1.7864
0.334225	2.26022	0.255612	5.65993	0.542324	6.05681	0.872613	2.87768	0.532386	2.88061	0.874989	1.84953
0.335608	2.24586	0.256407	5.66145	0.546062	6.11045	0.874377	2.86514	0.534145	2.84718	0.876144	1.91235
0.336984	2.23457	0.25755	5.66361	0.549832	6.16071	0.876133	2.85261	0.535884	2.81375	0.877338	1.9748
0.338354	2.2262	0.258793	5.66594	0.553632	6.20778	0.877882	2.84022	0.537602	2.78038	0.878571	2.03683
0.339719	2.22068	0.260484	5.66917	0.557459	6.25175	0.879623	2.82799	0.5393	2.74708	0.879841	2.09835
0.341082	2.21781	0.262624	5.67303	0.561313	6.29268	0.881356	2.81596	0.540978	2.71394	0.881149	2.15942
0.342444	2.21749	0.265214	5.67764	0.565191	6.33069	0.883083	2.80413	0.542635	2.68098	0.882494	2.2199
0.343807	2.21955	0.268255	5.68273	0.569092	6.36591	0.884802	2.79258	0.544272	2.64823	0.883876	2.27977
0.345171	2.2238	0.271748	5.68834	0.573013	6.39841	0.886514	2.78137	0.545889	2.61581	0.885295	2.33897
0.346539	2.23026	0.275244	5.69381	0.576953	6.42821	0.888219	2.77049	0.547486	2.58377	0.88675	2.39749
0.347912	2.23876	0.278744	5.69888	0.580911	6.45549	0.889918	2.76007	0.549063	2.55208	0.888241	2.45535
0.34929	2.24907	0.282247	5.70369	0.584885	6.48035	0.89161	2.75012	0.550621	2.5208	0.889767	2.5124
0.350675	2.26122	0.285752	5.70832	0.588873	6.50278	0.893297	2.74064	0.552161	2.49	0.891328	2.56864
0.352068	2.27501	0.28926	5.71269	0.592875	6.52283	0.894978	2.7318	0.553681	2.45966	0.892923	2.62403
0.35347	2.29035	0.292771	5.71676	0.596888	6.54062	0.896653	2.72357	0.555183	2.42994	0.894552	2.67848
0.354882	2.30724	0.296284	5.72057	0.600911	6.55624	0.898324	2.71599	0.556666	2.4008	0.896214	2.73207
0.356305	2.32546	0.2998	5.7242	0.604943	6.56972	0.899991	2.70915	0.558132	2.3723	0.897909	2.78472
0.35774	2.34496	0.303318	5.72752	0.608983	6.58112	0.901653	2.70314	0.559581	2.34444	0.899636	2.83637
0.359186	2.36559	0.306837	5.73062	0.61303	6.59038	0.903312	2.69791	0.561013	2.31723	0.901394	2.88701
0.360646	2.38735	0.310359	5.7335	0.617081	6.59767	0.904968	2.69354	0.562428	2.29086	0.903183	2.93663
0.36212	2.41017	0.313882	5.73611	0.621136	6.60298	0.906621	2.69013	0.563828	2.26517	0.905002	2.98524
0.363608	2.43391	0.317407	5.73847	0.625194	6.60636	0.908273	2.68777	0.565212	2.24028	0.906851	3.03268
0.36511	2.45855	0.320933	5.74065	0.629253	6.60788	0.909924	2.68648	0.56658	2.21622	0.908728	3.07903
0.366628	2.48398	0.32446	5.74262	0.633313	6.60748	0.911574	2.68624	0.567935	2.19303	0.910634	3.1243
0.368162	2.51008	0.327988	5.74434	0.637372	6.60528	0.913224	2.6872	0.569275	2.17072	0.912567	3.1684
0.369712	2.5369	0.331518	5.7458	0.641429	6.60118	0.914876	2.68945	0.570602	2.14929	0.914527	3.21128
0.371279	2.56436	0.335048	5.74704	0.645482	6.59518	0.916529	2.69296	0.571916	2.1288	0.916513	3.25307
0.372863	2.59237	0.338579	5.74804	0.649532	6.58747	0.918184	2.69776	0.573217	2.10916	0.918524	3.29364
0.374465	2.62087	0.342111	5.74882	0.653576	6.578	0.919843	2.70403	0.574507	2.09052	0.92056	3.33292
0.376083	2.64978	0.345643	5.74932	0.657614	6.56665	0.921507	2.71178	0.575786	2.07286	0.922619	3.37105
0.37772	2.67912	0.349175	5.74968	0.661645	6.55354	0.923175	2.72106	0.577054	2.05615	0.924702	3.40799
0.379375	2.70884	0.352707	5.74981	0.665666	6.53865	0.92485	2.73185	0.578312	2.04052	0.926806	3.44366
0.381049	2.73886	0.35624	5.74959	0.669678	6.52193	0.926532	2.74432	0.579561	2.02582	0.928933	3.47811
0.38274	2.76915	0.359772	5.74926	0.67368	6.50341	0.928222	2.75849	0.580801	2.01213	0.93108	3.51125
0.384451	2.79967	0.363304	5.74866	0.677669	6.4831	0.929921	2.77428	0.582034	1.99951	0.933247	3.5431
0.38618	2.83043	0.366835	5.7478	0.681645	6.46094	0.93141	2.78956	0.583258	1.98787	0.935433	3.57381
0.387929	2.86131	0.370366	5.7467	0.685608	6.43698	0.932687	2.80362	0.584476	1.97733	0.937353	3.59955
0.389696	2.89229	0.373896	5.74537	0.689554	6.41123	0.933747	2.81611	0.585688	1.96779	0.939001	3.62063
0.391482	2.92339	0.377425	5.74382	0.693485	6.38358	0.934589	2.82647	0.586894	1.95929	0.940371	3.63763
0.393288	2.95455	0.380953	5.74199	0.697398	6.35409	0.93521	2.83408	0.588095	1.95188	0.941458	3.65079
0.395113	2.98574	0.38448	5.73996	0.701292	6.32274	0.935608	2.83932	0.589292	1.94551	0.94226	3.66026
0.396956	3.01699	0.388006	5.73762	0.705167	6.28946	0.936182	2.84714	0.590485	1.94015	0.942775	3.66604
0.39882	3.04822	0.39153	5.73506	0.70902	6.25427	0.936808	2.85567	0.591676	1.93587	0.943515	3.67447
0.400702	3.07939	0.395052	5.73222	0.712851	6.21724	0.937661	2.86785	0.592864	1.93267	0.944323	3.68357
0.402603	3.11053	0.398573	5.72908	0.716659	6.17823	0.938747	2.88369	0.59405	1.93046	0.945424	3.69538
0.404524	3.14153	0.402092	5.72573	0.720442	6.13728	0.940067	2.90397	0.595236	1.9293	0.946821	3.71007
0.406463	3.17248	0.405608	5.72206	0.7242	6.09443	0.941628	2.9293	0.596421	1.92922	0.948518	3.72715
0.408422	3.20333	0.409122	5.71811	0.72793	6.04957	0.943437	2.96011	0.597606	1.93012	0.950519	3.74638
0.410399	3.23403	0.412634	5.71392	0.731633	6.00281	0.945265	2.99307	0.598792	1.93207	0.952827	3.76718
0.412395	3.2646	0.416143	5.70938	0.735306	5.95405	0.947115	3.02815	0.59998	1.9351	0.955147	3.78675
0.41441	3.29499	0.419649	5.70455	0.738948	5.90334	0.948986	3.0653	0.60117	1.93912	0.95748	3.80514
0.416444	3.32518	0.423152	5.69947	0.742559	5.85077	0.950881	3.10459	0.602363	1.94418	0.959823	3.82222
0.418496	3.35522	0.426652	5.69405	0.746137	5.79622	0.952801	3.14606	0.603559	1.95027	0.962176	3.83804
0.420566	3.38501	0.430148	5.68822	0.749681	5.73973	0.954746	3.18973	0.604759	1.95731	0.964538	3.85261
0.422655	3.41462	0.433641	5.68215	0.753189	5.68139	0.95672	3.23551	0.605964	1.96538	0.96691	3.86595
0.424762	3.44403	0.43713	5.67572	0.756661	5.62122	0.958722	3.28338	0.607174	1.97447	0.969288	3.87812
0.426886	3.47318	0.440614	5.6689	0.760096	5.55921	0.960754	3.33337	0.60839	1.98452	0.971674	3.88898
0.429029	3.50214	0.444095	5.66176	0.763492	5.49543	0.962818	3.38541	0.609612	1.99559	0.974067	3.89857
0.431189	3.53078	0.447571	5.65425	0.766848	5.43	0.964914	3.43948	0.610842	2.00768	0.976465	3.90704
0.433367	3.55921	0.451042	5.64633	0.770164	5.36285	0.967044	3.49556	0.612079	2.02067	0.978867	3.91432
0.435563	3.58736	0.454508	5.63804	0.773437	5.29411	0.969209	3.55348	0.613325	2.03466	0.981274	3.9203
0.437775	3.61521	0.457969	5.6294	0.776668	5.22393	0.97141	3.61326	0.614579	2.04971	0.983684	3.92512
0.440005	3.6428	0.461425	5.62024	0.779856	5.15229	0.973648	3.67481	0.615843	2.06562	0.986097	3.92886
0.442251	3.67009	0.464875	5.61067	0.782999	5.07937	0.975925	3.73797	0.617117	2.08258	0.988511	3.93135
0.444514	3.69712	0.468319	5.60077	0.786097	5.00525	0.978241	3.8027	0.618402	2.10049	0.990927	3.93264
0.446793	3.72385	0.471757	5.59032	0.789149	4.92993	0.980597	3.86895	0.619698	2.11928	0.993343	3.93279
0.449089	3.75033	0.475188	5.57938	0.792154	4.85367	0.982995	3.93656	0.621006	2.13912	0.995759	3.93181
0.451401	3.7765	0.478612	5.56802	0.795112	4.77661	0.985434	4.0053	0.622326	2.15987	0.998174	3.92977
0.453729	3.80231	0.482029	5.55618	0.798023	4.6987	0.987916	4.07516	0.62366	2.18157	1.00059	3.92845
0.456073	3.82782	0.485439	5.54381	0.800886	4.62026	0.990441	4.14596	0.625007	2.20431		
0.458433	3.85307	0.48884	5.53085	0.8037	4.54144	0.99301	4.21758	0.626368	2.22795		
0.460807	3.87797	0.492234	5.51743	0.806466	4.4622	0.995623	4.28993	0.627744	2.25255		
0.463197	3.90259	0.49562	5.50344	0.809183	4.38288	0.998281	4.36271	0.629136	2.27812		
0.465603	3.92689	0.498996	5.48884	0.811851	4.30351	1.00098	4.39915	0.630543	2.30462		
0.468022	3.95087	0.502364	5.47371	0.81447	4.22428			0.631967	2.33209		
0.470457	3.97452	0.505722	5.45793	0.817041	4.14534			0.633409	2.36054		
0.472906	3.99785	0.50907	5.44159	0.819564	4.06683			0.634868	2.38999		
0.475369	4.02089	0.512408	5.42459	0.822038	3.98892			0.636345	2.42037		
0.477846	4.04364	0.515735	5.40693	0.824465	3.91169			0.637841	2.45167		
0.480337	4.066	0.519051	5.38866	0.826844	3.83537			0.639357	2.48398		
0.482842	4.08813	0.522356	5.36963	0.829177	3.76			0.640893	2.51724		
0.48536	4.10991	0.525649	5.34996	0.831464	3.68577			0.64245	2.55148		
0.487892	4.13135	0.528929	5.32963	0.833706	3.61278			0.644028	2.58676		
0.490436	4.15252	0.532197	5.30863	0.835903	3.54107			0.645629	2.62289		
0.492994	4.17332	0.535452	5.28686	0.838057	3.47078			0.647251	2.66006		
0.495564	4.19382	0.538693	5.26431	0.840168	3.40204			0.648897	2.69826		
0.498147	4.21402	0.54192	5.24115	0.842237	3.33484			0.650566	2.73729		
0.500742	4.23395	0.545133	5.21724	0.844265	3.26942			0.65226	2.77736		
0.503349	4.25352	0.54833	5.19251	0.846254	3.20572			0.653979	2.81838		
0.505968	4.2728	0.551513	5.16715	0.848204	3.14377			0.655723	2.86028		
0.508599	4.29178	0.554679	5.14108	0.850116	3.08374			0.657493	2.90322		
0.511241	4.31043	0.557829	5.11422	0.851993	3.02552			0.65929	2.94702		
0.513895	4.32886	0.560963	5.08674	0.853834	2.96919			0.661114	2.99169		
0.51656	4.34691	0.564079	5.05861	0.855641	2.91487			0.662966	3.03735		
0.519236	4.36465	0.567178	5.02978	0.857415	2.86244			0.664846	3.08378		
0.521923	4.38213	0.570259	5.00031	0.859158	2.81195			0.666755	3.1311		
