Sym0		Asym0		Sym1		Sym2		Asym1		Asym2	
365  Points		367  Points		296  Points		178  Points		311  Points		175  Points	
Freq (MHz)	Vgr (m/ms)	Freq (MHz)	Vgr (m/ms)	Freq (MHz)	Vgr (m/ms)	Freq (MHz)	Vgr (m/ms)	Freq (MHz)	Vgr (m/ms)	Freq (MHz)	Vgr (m/ms)
0.000140212	7.44704	0.00025861	0.399957	0.44428	-0.031638	0.707127	0.114753	0.353553	0.0623933	0.888563	-0.0487803
0.00471524	7.44673	0.00050432	0.465823	0.44426	-0.046293	0.707198	0.155926	0.353592	0.122012	0.888533	-0.0768636
0.00928989	7.44572	0.000830959	0.597109	0.444223	-0.0755957	0.707319	0.238011	0.353703	0.241107	0.888469	-0.132789
0.0138637	7.44401	0.00123798	0.72761	0.444168	-0.104655	0.70749	0.319764	0.353888	0.359778	0.88837	-0.188323
0.0184362	7.4416	0.00172496	0.857207	0.444094	-0.133226	0.707712	0.401293	0.354145	0.477934	0.888238	-0.243298
0.023007	7.43845	0.00229121	0.985664	0.444004	-0.161267	0.707983	0.482376	0.354475	0.595395	0.888071	-0.297597
0.0275757	7.4346	0.00293603	1.11284	0.443896	-0.18869	0.708304	0.562902	0.354877	0.711907	0.887872	-0.351101
0.0321418	7.43011	0.00365854	1.23856	0.443772	-0.215323	0.708675	0.642866	0.35535	0.827301	0.88764	-0.40357
0.036705	7.42491	0.00445783	1.36283	0.443632	-0.241042	0.709094	0.722263	0.355893	0.941458	0.887376	-0.45497
0.0412647	7.41896	0.00533302	1.48539	0.443476	-0.265821	0.709562	0.80086	0.356507	1.05425	0.887081	-0.505118
0.0458205	7.41226	0.00628291	1.60612	0.443305	-0.289499	0.710078	0.878633	0.357189	1.16543	0.886755	-0.553874
0.050372	7.40477	0.00730644	1.72506	0.44312	-0.311972	0.710642	0.955647	0.357939	1.27493	0.8864	-0.60118
0.0549186	7.39655	0.00840246	1.84196	0.442922	-0.333149	0.711252	1.0317	0.358755	1.38262	0.886017	-0.646918
0.05946	7.38756	0.00956963	1.9567	0.442711	-0.352953	0.711909	1.10672	0.359637	1.48827	0.885605	-0.690963
0.0639956	7.3778	0.0108066	2.06933	0.442488	-0.371234	0.712612	1.18067	0.360584	1.59194	0.885168	-0.73329
0.068525	7.36716	0.0121122	2.17983	0.442255	-0.387915	0.71336	1.25358	0.361593	1.69352	0.884705	-0.773847
0.0730475	7.35565	0.0134849	2.28799	0.442012	-0.402948	0.714152	1.32533	0.362665	1.79272	0.884217	-0.812529
0.0775627	7.3433	0.0149234	2.39378	0.44176	-0.416241	0.714988	1.39585	0.363796	1.88959	0.883706	-0.849237
0.0820701	7.33005	0.0164261	2.49728	0.4415	-0.427609	0.715867	1.46513	0.364986	1.98415	0.883173	-0.884
0.086569	7.31586	0.0179918	2.59832	0.441234	-0.437017	0.716789	1.53315	0.366234	2.07618	0.88262	-0.91676
0.091059	7.30072	0.0196187	2.69699	0.440963	-0.444503	0.717751	1.59989	0.367537	2.16572	0.882047	-0.9474
0.0955393	7.28465	0.0213055	2.79325	0.440688	-0.449811	0.718754	1.66527	0.368895	2.25271	0.881456	-0.976024
0.100009	7.2675	0.0230507	2.88702	0.44041	-0.452985	0.719797	1.72928	0.370305	2.33706	0.880848	-1.00261
0.104469	7.2493	0.0248527	2.97836	0.440132	-0.45389	0.720879	1.79188	0.371766	2.41878	0.880224	-1.02714
0.108917	7.23002	0.0267101	3.06729	0.439853	-0.452479	0.721999	1.85309	0.373277	2.4979	0.879586	-1.04952
0.113352	7.20956	0.0286215	3.15386	0.439576	-0.448658	0.723156	1.91285	0.374836	2.5744	0.878935	-1.06986
0.117775	7.18797	0.0305852	3.23801	0.439302	-0.442348	0.724349	1.97119	0.37644	2.6482	0.878271	-1.08809
0.122184	7.16512	0.0326	3.31979	0.439032	-0.433616	0.725578	2.0281	0.378089	2.71939	0.877598	-1.10423
0.126579	7.14097	0.0346642	3.39926	0.438769	-0.422151	0.726841	2.08349	0.379781	2.78789	0.876915	-1.1184
0.130958	7.11554	0.0367766	3.47644	0.438513	-0.407995	0.728138	2.1374	0.381515	2.85369	0.876223	-1.13053
0.135321	7.08868	0.0389356	3.55128	0.438267	-0.391234	0.729467	2.18991	0.383288	2.91697	0.875525	-1.14068
0.139668	7.06041	0.04114	3.62387	0.438033	-0.371599	0.730829	2.24095	0.385099	2.97768	0.874822	-1.14876
0.143996	7.03062	0.0433882	3.6944	0.437811	-0.348989	0.732221	2.29048	0.386946	3.03578	0.874114	-1.15493
0.148306	6.99925	0.0456792	3.7627	0.437604	-0.32354	0.733643	2.33857	0.388829	3.09132	0.873403	-1.15916
0.152596	6.96629	0.0480114	3.82889	0.437413	-0.295082	0.735094	2.38519	0.390745	3.14431	0.87269	-1.1615
0.156865	6.93159	0.0503837	3.89307	0.437241	-0.26349	0.736573	2.43034	0.392692	3.19487	0.871976	-1.16196
0.161113	6.89516	0.0527947	3.95522	0.43709	-0.228742	0.73808	2.4741	0.39467	3.24301	0.871262	-1.16055
0.165337	6.85686	0.0552434	4.01543	0.43696	-0.190791	0.739613	2.5164	0.396677	3.28873	0.87055	-1.15739
0.169538	6.81658	0.0577284	4.07376	0.436855	-0.149546	0.741172	2.55725	0.398711	3.33209	0.86984	-1.15242
0.173713	6.77434	0.0602488	4.13021	0.436776	-0.104934	0.742755	2.59674	0.400771	3.37305	0.869134	-1.14569
0.177861	6.73007	0.0628031	4.18481	0.436726	-0.0569199	0.744363	2.63485	0.402855	3.41176	0.868432	-1.13723
0.181982	6.68363	0.0653906	4.23768	0.436707	-0.005322	0.745993	2.67152	0.404963	3.44829	0.867737	-1.12709
0.186073	6.63496	0.0680099	4.28889	0.43672	0.0497774	0.747645	2.70687	0.407092	3.48248	0.867048	-1.11525
0.190134	6.58393	0.0706603	4.33844	0.436768	0.108547	0.749319	2.74091	0.409242	3.51455	0.866366	-1.10179
0.194163	6.53042	0.0733405	4.38632	0.436853	0.170993	0.751013	2.77356	0.41141	3.54457	0.865694	-1.08676
0.198158	6.4745	0.0760497	4.43266	0.436978	0.237236	0.752727	2.80486	0.413597	3.57241	0.865031	-1.07014
0.202118	6.41607	0.0787868	4.47747	0.437145	0.307296	0.754459	2.83493	0.4158	3.5982	0.864379	-1.052
0.206041	6.35498	0.081551	4.52087	0.437355	0.381214	0.75621	2.86374	0.418018	3.62201	0.863738	-1.03226
0.209926	6.29113	0.0843415	4.56279	0.437613	0.459182	0.757978	2.89126	0.42025	3.64386	0.863111	-1.01102
0.213771	6.2245	0.0871573	4.60332	0.43792	0.541029	0.759762	2.91754	0.422495	3.6638	0.862496	-0.988404
0.217574	6.15512	0.0899975	4.64261	0.438278	0.626859	0.761562	2.94253	0.424752	3.6818	0.861896	-0.964283
0.221334	6.08278	0.0928616	4.68054	0.43869	0.716766	0.763378	2.96643	0.427019	3.69792	0.861311	-0.938701
0.225048	6.00754	0.0957485	4.7172	0.439158	0.810717	0.765207	2.98911	0.429295	3.71226	0.860743	-0.911751
0.228715	5.92935	0.0986575	4.75263	0.439686	0.908647	0.76705	3.01059	0.43158	3.72484	0.860191	-0.883399
0.232333	5.84817	0.101588	4.78694	0.440275	1.01065	0.768906	3.03101	0.433872	3.73566	0.859657	-0.853686
0.235901	5.76413	0.104539	4.82014	0.440928	1.11668	0.770774	3.05019	0.43617	3.74477	0.859142	-0.822697
0.239416	5.67714	0.10751	4.8522	0.441647	1.22654	0.772654	3.06832	0.438473	3.7522	0.858647	-0.790377
0.242876	5.58723	0.110501	4.88324	0.442435	1.34031	0.774544	3.08538	0.44078	3.75796	0.858171	-0.756726
0.246281	5.49451	0.11351	4.9132	0.443294	1.45776	0.776445	3.10127	0.44309	3.76216	0.857717	-0.72186
0.249627	5.39903	0.116538	4.94214	0.444226	1.57881	0.778355	3.11617	0.445403	3.76476	0.857284	-0.685673
0.252914	5.30104	0.119583	4.97014	0.445234	1.70339	0.780274	3.13009	0.447716	3.76575	0.856874	-0.648287
0.25614	5.2006	0.122644	4.99726	0.446319	1.83115	0.782201	3.14294	0.45003	3.76529	0.856488	-0.609728
0.259304	5.0978	0.125723	5.02351	0.447483	1.96193	0.784135	3.15476	0.452342	3.76336	0.856125	-0.569931
0.262404	4.99294	0.128817	5.04879	0.448729	2.09552	0.786077	3.16561	0.454654	3.75995	0.855787	-0.528991
0.265439	4.88631	0.131926	5.07325	0.450058	2.23162	0.788025	3.17553	0.456962	3.75513	0.855475	-0.486878
0.268408	4.77811	0.13505	5.09696	0.451471	2.36999	0.789979	3.1845	0.459268	3.74892	0.855189	-0.44364
0.27131	4.66858	0.138189	5.11984	0.45297	2.51021	0.791938	3.19255	0.461569	3.7413	0.85493	-0.399262
0.274144	4.55804	0.141341	5.14192	0.454556	2.65191	0.793901	3.19966	0.463864	3.73238	0.854699	-0.353825
0.27691	4.44692	0.144506	5.16331	0.456228	2.79481	0.795869	3.20587	0.466154	3.7222	0.854495	-0.307382
0.279608	4.33554	0.147685	5.184	0.457989	2.93854	0.79784	3.21129	0.468438	3.71072	0.854321	-0.259817
0.282237	4.2242	0.150876	5.20393	0.459839	3.08259	0.799815	3.21581	0.470714	3.698	0.854176	-0.211227
0.284798	4.11336	0.154079	5.22324	0.461777	3.22651	0.801792	3.21951	0.472981	3.6841	0.854061	-0.161699
0.287291	4.00331	0.157294	5.24188	0.463803	3.37007	0.80377	3.22235	0.47524	3.66896	0.853977	-0.111185
0.289717	3.89453	0.160519	5.25993	0.465918	3.51278	0.805751	3.22438	0.477489	3.65268	0.853925	-0.0596974
0.292076	3.78736	0.163756	5.27738	0.468119	3.65425	0.807732	3.22566	0.479728	3.63534	0.853904	-0.007262
0.29437	3.68211	0.167004	5.29416	0.470408	3.79401	0.809714	3.22622	0.481956	3.61688	0.853916	0.046069
0.2966	3.57925	0.170261	5.3104	0.472781	3.93181	0.811696	3.22601	0.484172	3.59739	0.853961	0.100303
0.298768	3.47893	0.173529	5.32611	0.474918	4.05006	0.813678	3.22502	0.486376	3.57686	0.854039	0.155342
0.300607	3.39386	0.176805	5.34131	0.476789	4.14933	0.815659	3.22339	0.488567	3.55534	0.854152	0.211103
0.30214	3.32326	0.180091	5.35594	0.47837	4.2303	0.817638	3.22111	0.490745	3.53295	0.854298	0.267753
0.303383	3.26613	0.183386	5.37008	0.479642	4.2933	0.819616	3.21812	0.492631	3.51266	0.854481	0.325181
0.304351	3.22202	0.186689	5.38371	0.480589	4.33923	0.821592	3.21448	0.49423	3.49486	0.854698	0.383277
0.305054	3.19033	0.190001	5.39687	0.481201	4.36855	0.823566	3.21019	0.495546	3.47976	0.854951	0.442153
0.305501	3.17014	0.19332	5.40963	0.482087	4.41017	0.825537	3.20538	0.496582	3.46763	0.855241	0.50159
0.306138	3.1414	0.196648	5.42181	0.483059	4.45488	0.827504	3.19998	0.497342	3.45852	0.855568	0.561593
0.306824	3.11078	0.199982	5.43363	0.484397	4.51511	0.829468	3.19396	0.497827	3.45264	0.855931	0.622283
0.307746	3.07	0.203324	5.44506	0.486116	4.59001	0.831429	3.18748	0.498523	3.44415	0.856332	0.68357
0.308895	3.01984	0.206672	5.45602	0.488231	4.67871	0.833385	3.1804	0.499278	3.43485	0.856771	0.745274
0.310259	2.96116	0.210028	5.46661	0.490763	4.78012	0.835336	3.1729	0.500301	3.42209	0.857248	0.807368
0.311827	2.89521	0.213389	5.4768	0.493735	4.8928	0.837283	3.16503	0.501589	3.40551	0.857763	0.870018
0.313583	2.82335	0.216757	5.48662	0.496775	5.00162	0.839225	3.1566	0.503139	3.38517	0.858317	0.933005
0.315296	2.75577	0.22013	5.49605	0.49988	5.10635	0.841162	3.14775	0.504945	3.36088	0.85891	0.996331
0.316969	2.69243	0.22351	5.50514	0.503049	5.20687	0.843093	3.1386	0.507001	3.33236	0.859541	1.06
0.318604	2.63338	0.226895	5.51387	0.506278	5.30328	0.845018	3.12907	0.509039	3.30328	0.860212	1.12381
0.320204	2.5787	0.230285	5.52222	0.509565	5.39542	0.846938	3.11924	0.51106	3.27363	0.860922	1.18788
0.321772	2.52825	0.23368	5.53025	0.512907	5.48342	0.848851	3.10913	0.513062	3.24342	0.861671	1.25216
0.323311	2.48198	0.236642	5.53706	0.516302	5.56729	0.850758	3.09868	0.515045	3.21276	0.86246	1.31651
0.324822	2.4398	0.23917	5.54262	0.519748	5.64705	0.852658	3.088	0.517009	3.18166	0.863289	1.3809
0.326308	2.40165	0.241263	5.54712	0.523241	5.72287	0.854552	3.07719	0.518954	3.15017	0.864157	1.44526
0.327773	2.36807	0.242919	5.55046	0.526779	5.79476	0.856439	3.06624	0.52088	3.11838	0.865065	1.50967
0.330644	2.31092	0.244137	5.55306	0.530361	5.86276	0.858319	3.0551	0.522786	3.08626	0.866012	1.57406
0.332056	2.28712	0.244917	5.55468	0.533983	5.92697	0.860193	3.04384	0.524672	3.05393	0.866999	1.63819
0.333454	2.26728	0.246038	5.5568	0.537643	5.98762	0.862059	3.03252	0.526538	3.02133	0.868025	1.70214
0.334842	2.25075	0.247257	5.55928	0.54134	6.04466	0.863919	3.02121	0.528384	2.98859	0.86909	1.76594
0.33622	2.23737	0.248917	5.56242	0.54507	6.09823	0.865771	3.00993	0.53021	2.95583	0.870195	1.82945
0.337591	2.22702	0.251017	5.56629	0.548832	6.1485	0.867617	2.99871	0.532016	2.92296	0.871338	1.8926
0.338956	2.21945	0.253558	5.57094	0.552625	6.19553	0.869456	2.98758	0.533801	2.89003	0.87252	1.95537
0.340318	2.21456	0.256542	5.57608	0.556445	6.23942	0.871288	2.97654	0.535567	2.85718	0.873741	2.01771
0.341677	2.21234	0.259969	5.58184	0.560291	6.2803	0.873113	2.96568	0.537312	2.82448	0.874999	2.07962
0.343036	2.2125	0.2634	5.58728	0.564161	6.31824	0.874932	2.95506	0.539037	2.79186	0.876296	2.14102
0.344395	2.21497	0.266834	5.59238	0.568054	6.35332	0.876744	2.94472	0.540742	2.75939	0.87763	2.20184
0.345757	2.21959	0.270271	5.59732	0.571967	6.38563	0.87855	2.93471	0.542427	2.72721	0.879001	2.26205
0.347123	2.22629	0.273712	5.60196	0.5759	6.41533	0.88035	2.925	0.544093	2.69529	0.880409	2.32161
0.348493	2.23503	0.277154	5.60633	0.57985	6.44246	0.882144	2.9157	0.545739	2.66373	0.881854	2.38052
0.349869	2.24551	0.2806	5.61047	0.583816	6.46708	0.883932	2.90688	0.547366	2.63245	0.883334	2.4387
0.351252	2.25763	0.284048	5.61436	0.587796	6.48927	0.885715	2.89857	0.548974	2.6016	0.88485	2.49606
0.352643	2.27142	0.287498	5.61798	0.591789	6.50914	0.887494	2.89082	0.550562	2.57128	0.886401	2.55259
0.354043	2.28669	0.290951	5.62134	0.595794	6.52674	0.889267	2.88367	0.552133	2.54141	0.887986	2.60834
0.355452	2.30339	0.294405	5.62458	0.599808	6.5421	0.891037	2.87713	0.553685	2.51203	0.889606	2.66329
0.356873	2.3214	0.297862	5.62747	0.603832	6.55533	0.892802	2.87128	0.555219	2.48324	0.891259	2.71721
0.358305	2.34062	0.30132	5.63014	0.607863	6.56639	0.894565	2.86624	0.556736	2.45512	0.892944	2.77018
0.359749	2.36101	0.304779	5.63259	0.6119	6.57536	0.896324	2.86205	0.558236	2.42757	0.894662	2.82223
0.361205	2.38236	0.30824	5.63481	0.615942	6.58234	0.898081	2.85866	0.559719	2.40068	0.896412	2.87326
0.362676	2.4047	0.311703	5.63687	0.619987	6.58739	0.899836	2.85622	0.561186	2.37458	0.898193	2.92332
0.36416	2.42798	0.315166	5.63862	0.624036	6.59047	0.90159	2.85477	0.562636	2.3492	0.900004	2.97224
0.365659	2.45212	0.318631	5.64016	0.628085	6.59162	0.903344	2.85433	0.564072	2.32457	0.901845	3.02009
0.367173	2.47696	0.322096	5.64148	0.632135	6.59086	0.905098	2.855	0.565493	2.3007	0.903715	3.06691
0.368702	2.50249	0.325562	5.64265	0.636183	6.58821	0.906852	2.8569	0.566899	2.27771	0.905613	3.11258
0.370248	2.52869	0.329029	5.64356	0.640229	6.58377	0.908608	2.85993	0.568291	2.25555	0.907539	3.15703
0.371809	2.55546	0.332496	5.64418	0.644272	6.5775	0.910366	2.86419	0.56967	2.23426	0.909492	3.2004
0.373388	2.58278	0.335964	5.64472	0.648311	6.56942	0.912127	2.86984	0.571036	2.21383	0.911471	3.2426
0.374983	2.61049	0.339432	5.64499	0.652344	6.55949	0.913892	2.8768	0.57239	2.19435	0.913476	3.28357
0.376595	2.63868	0.3429	5.64495	0.656371	6.5477	0.915662	2.88527	0.573733	2.17577	0.915506	3.3234
0.378225	2.66726	0.346368	5.64477	0.660389	6.53419	0.917437	2.89522	0.575064	2.15816	0.917559	3.36197
0.379872	2.69611	0.349836	5.6444	0.664399	6.51888	0.919219	2.90669	0.576384	2.14152	0.919636	3.39935
0.381538	2.7253	0.353303	5.64377	0.668399	6.50173	0.921008	2.91983	0.577695	2.12581	0.921736	3.43544
0.383221	2.75479	0.35677	5.6429	0.672388	6.48277	0.922806	2.93447	0.578996	2.11107	0.923858	3.4703
0.384922	2.78441	0.360236	5.64186	0.676364	6.46207	0.924381	2.94866	0.580289	2.09737	0.926	3.50404
0.386642	2.81422	0.363702	5.64061	0.680327	6.43956	0.92573	2.96183	0.581573	2.08463	0.927884	3.53235
0.38838	2.84418	0.367167	5.63916	0.684276	6.41514	0.926849	2.97327	0.58285	2.07287	0.929501	3.55575
0.390137	2.87426	0.370631	5.63743	0.68821	6.38894	0.927738	2.98304	0.58412	2.06222	0.930847	3.57458
0.391912	2.90446	0.374093	5.63545	0.692126	6.36095	0.928393	2.99049	0.585384	2.0525	0.931915	3.58919
0.393705	2.93467	0.377555	5.63324	0.696025	6.33107	0.928814	2.99528	0.586642	2.04376	0.932704	3.59966
0.395517	2.96494	0.381015	5.63086	0.699905	6.29925	0.929419	3.00235	0.587895	2.03611	0.93321	3.60617
0.397348	2.99518	0.384473	5.62823	0.703765	6.26562	0.930079	3.01038	0.589144	2.02951	0.933939	3.61557
0.399198	3.02535	0.38793	5.62535	0.707604	6.23015	0.930979	3.02178	0.590389	2.02387	0.934733	3.62576
0.401065	3.0556	0.391385	5.62225	0.71142	6.19269	0.932122	3.03668	0.59163	2.01923	0.935817	3.63922
0.402952	3.08572	0.394838	5.61887	0.715212	6.15342	0.933512	3.05571	0.59287	2.01562	0.937194	3.6557
0.404857	3.11572	0.398289	5.61529	0.71898	6.11223	0.935154	3.07942	0.594107	2.0131	0.938867	3.6751
0.40678	3.14571	0.401738	5.61144	0.722722	6.06903	0.937054	3.10851	0.595343	2.01156	0.94084	3.69695
0.408722	3.17554	0.405184	5.60735	0.726437	6.024	0.938973	3.13955	0.596578	2.01096	0.943119	3.7208
0.410682	3.20522	0.408627	5.60298	0.730124	5.97704	0.940912	3.17256	0.597814	2.01138	0.945412	3.74349
0.41266	3.23478	0.412068	5.59835	0.733781	5.92813	0.942871	3.20762	0.59905	2.01287	0.947718	3.76495
0.414656	3.26417	0.415506	5.59347	0.737408	5.8774	0.944853	3.24481	0.600287	2.01533	0.950038	3.78512
0.416671	3.29336	0.418941	5.58832	0.741003	5.82477	0.946858	3.284	0.601526	2.01873	0.952369	3.80398
0.418703	3.32234	0.422372	5.58285	0.744565	5.77018	0.948888	3.32526	0.602767	2.02315	0.954712	3.82163
0.420753	3.35116	0.4258	5.57712	0.748092	5.71379	0.950944	3.36861	0.604012	2.02853	0.957065	3.83801
0.42282	3.37984	0.429225	5.57114	0.751585	5.6556	0.953027	3.414	0.60526	2.03483	0.959427	3.8532
0.424906	3.40823	0.432645	5.56477	0.755041	5.59562	0.955138	3.46141	0.606512	2.0422	0.961799	3.86718
0.427008	3.43631	0.436062	5.55814	0.75846	5.53392	0.95728	3.51077	0.607769	2.05049	0.964179	3.87983
0.429128	3.46424	0.439475	5.55126	0.761841	5.47053	0.959452	3.56205	0.609031	2.05969	0.966566	3.89132
0.431264	3.49192	0.442883	5.544	0.765182	5.40545	0.961656	3.6153	0.6103	2.06985	0.96896	3.90168
0.433418	3.51937	0.446286	5.53642	0.768482	5.33887	0.963894	3.67036	0.611575	2.08092	0.97136	3.91075
0.435589	3.54653	0.449685	5.52847	0.771742	5.27081	0.966166	3.72715	0.612857	2.09296	0.973765	3.91855
0.437776	3.57344	0.453079	5.52021	0.774959	5.20124	0.968474	3.78566	0.614146	2.10586	0.976175	3.92524
0.439979	3.60006	0.456468	5.51164	0.778132	5.13046	0.970817	3.84579	0.615444	2.11976	0.978588	3.9308
0.442199	3.62637	0.459851	5.50269	0.781262	5.05842	0.973199	3.9074	0.616751	2.13453	0.981004	3.93519
0.444435	3.65246	0.463229	5.49333	0.784347	4.98524	0.975618	3.97047	0.618067	2.15014	0.983423	3.93833
0.446687	3.67828	0.466601	5.4836	0.787388	4.91111	0.978077	4.03483	0.619393	2.16678	0.985843	3.94035
0.448954	3.7038	0.469966	5.47356	0.790382	4.83594	0.980576	4.10033	0.620729	2.18426	0.988265	3.94124
0.451238	3.72894	0.473326	5.4631	0.793329	4.76015	0.983115	4.16691	0.622076	2.20255	0.990686	3.94102
0.453536	3.75384	0.476679	5.45215	0.79623	4.68371	0.985696	4.23441	0.623435	2.22181	0.993107	3.93969
0.45585	3.77851	0.480025	5.44085	0.799084	4.60667	0.988318	4.30281	0.624806	2.24193	0.995526	3.93719
0.458179	3.80284	0.483364	5.42914	0.80189	4.52932	0.990983	4.37178	0.62619	2.26288	0.997944	3.93367
0.460522	3.82684	0.486696	5.4169	0.804649	4.45177	0.99369	4.4412	0.627587	2.28468	1.00036	3.93164
0.462881	3.8505	0.49002	5.40428	0.80736	4.37412	0.996439	4.51107	0.628997	2.30741		
0.465253	3.87394	0.493336	5.39125	0.810024	4.29648	0.999232	4.58116	0.630422	2.331		
0.46764	3.8971	0.496644	5.37774	0.812639	4.21905	1.00207	4.61622	0.631861	2.3554		
0.470042	3.91984	0.499943	5.36371	0.815208	4.14202			0.633316	2.38065		
0.472457	3.94232	0.503234	5.34919	0.817729	4.06546			0.634786	2.40677		
0.474886	3.96456	0.506516	5.33422	0.820203	3.98947			0.636273	2.43377		
0.477328	3.98645	0.509788	5.31873	0.82263	3.91421			0.637776	2.46155		
0.479784	4.008	0.513051	5.30277	0.825012	3.83992			0.639297	2.49015		
0.482252	4.02928	0.516304	5.28623	0.827348	3.76657			0.640836	2.51962		
0.484734	4.05024	0.519546	5.26919	0.82964	3.69434			0.642393	2.5499		
0.487229	4.07089	0.522778	5.25162	0.831888	3.62335			0.643969	2.58103		
0.489736	4.09127	0.525999	5.2335	0.834092	3.55359			0.645564	2.61299		
0.492256	4.11134	0.529208	5.21483	0.836254	3.48533			0.64718	2.64568		
0.494788	4.13104	0.532406	5.19561	0.838374	3.41855			0.648815	2.67924		
0.497332	4.1505	0.535592	5.1759	0.840454	3.35327			0.650471	2.71363		
0.499887	4.16967	0.538765	5.1556	0.842494	3.2897			0.652149	2.74882		
0.502455	4.18853	0.541926	5.13478	0.844496	3.22782			0.653849	2.78474		
0.505034	4.20713	0.545074	5.11338	0.84646	3.16766			0.655571	2.82136		
0.507624	4.22536	0.548209	5.09146	0.848388	3.10931			0.657315	2.85884		
0.510225	4.24331	0.55133	5.06906	0.850281	3.0527			0.659083	2.89712		
0.512838	4.26101	0.554437	5.04603	0.852139	2.99796			0.660875	2.93609		
0.515461	4.27835	0.55753	5.02252	0.853964	2.94515			0.662691	2.97574		
0.518094	4.29547	0.560608	4.9986	0.855758	2.8942			0.664531	3.01611		
0.520739	4.3123	0.563672	4.97409	0.85752	2.84506			0.666397	3.05718		
