Sym0		Sym1		Sym2		Sym3		Asym1		Asym2		Asym3	
421  Points		421  Points		379  Points		244  Points		403  Points		386  Points		255  Points	
Freq (MHz)	Vph (m/ms)	Freq (MHz)	Vph (m/ms)	Freq (MHz)	Vph (m/ms)	Freq (MHz)	Vph (m/ms)	Freq (MHz)	Vph (m/ms)	Freq (MHz)	Vph (m/ms)	Freq (MHz)	Vph (m/ms)
1.00194	2.42504	1.00254	2.42512	0.43302	960.798	0.866019	1041.5	0.216516	413.384	1.00101	2.64072	0.683227	4958.34
0.999393	2.42471	0.999986	2.42478	0.433089	299.361	0.865995	473.859	0.21659	142.513	0.999323	2.64321	0.683314	602.666
0.996845	2.42438	0.997437	2.42446	0.433231	177.355	0.865952	306.688	0.216735	86.1492	0.997652	2.64576	0.683535	320.933
0.994301	2.42407	0.994892	2.42414	0.433444	126.047	0.865891	226.698	0.216952	61.7773	0.996002	2.64838	0.683887	218.783
0.991761	2.42376	0.992351	2.42383	0.433729	97.8016	0.865812	179.793	0.217239	48.1912	0.994371	2.65106	0.684362	166.031
0.989225	2.42346	0.989814	2.42353	0.434083	79.9298	0.865715	148.962	0.217597	39.5351	0.992759	2.65381	0.684951	133.834
0.986694	2.42318	0.987282	2.42324	0.434506	67.6081	0.8656	127.151	0.218024	33.5426	0.991166	2.65662	0.685646	112.145
0.984168	2.4229	0.984755	2.42296	0.434996	58.6023	0.865467	110.905	0.21852	29.1518	0.989589	2.6595	0.686436	96.5456
0.981646	2.42263	0.982232	2.42269	0.435551	51.7351	0.865317	98.3349	0.219083	25.7989	0.98803	2.66243	0.687311	84.7906
0.979129	2.42237	0.979713	2.42243	0.43617	46.3277	0.86515	88.3192	0.219713	23.1569	0.986487	2.66543	0.688263	75.6166
0.976616	2.42212	0.9772	2.42218	0.436851	41.9608	0.864966	80.1507	0.220407	21.0232	0.98496	2.66849	0.689283	68.2591
0.974109	2.42189	0.974691	2.42194	0.437591	38.3617	0.864766	73.3613	0.221166	19.2653	0.983448	2.6716	0.690363	62.2282
0.971606	2.42166	0.972188	2.42171	0.438387	35.3453	0.864549	67.6285	0.221987	17.7931	0.981951	2.67477	0.691497	57.1954
0.969109	2.42145	0.969689	2.4215	0.43924	32.7815	0.864316	62.7233	0.222869	16.5431	0.980468	2.678	0.692679	52.9324
0.966617	2.42125	0.967196	2.4213	0.440144	30.5761	0.864068	58.4784	0.223811	15.4693	0.978999	2.68128	0.693903	49.2754
0.964131	2.42106	0.964708	2.42111	0.4411	28.6595	0.863804	54.7686	0.22481	14.5375	0.977543	2.68461	0.695165	46.1041
0.96165	2.42089	0.962226	2.42093	0.442103	26.9788	0.863525	51.4987	0.225865	13.722	0.976099	2.688	0.69646	43.3279
0.959175	2.42073	0.95975	2.42076	0.443153	25.4933	0.863233	48.5947	0.226975	13.0026	0.974669	2.69144	0.697786	40.8775
0.956705	2.42058	0.957279	2.42061	0.444246	24.1713	0.862926	45.9983	0.228138	12.3637	0.97325	2.69494	0.69914	38.6987
0.954242	2.42045	0.954814	2.42047	0.445382	22.9873	0.862605	43.663	0.229351	11.7929	0.971843	2.69848	0.700517	36.7489
0.951784	2.42033	0.952355	2.42035	0.446557	21.921	0.862272	41.5513	0.230613	11.2801	0.970448	2.70208	0.701918	34.9939
0.949333	2.42022	0.949902	2.42025	0.44777	20.956	0.861926	39.6324	0.231923	10.8172	0.969063	2.70573	0.703338	33.4059
0.946888	2.42014	0.947456	2.42016	0.449019	20.0784	0.861568	37.881	0.233279	10.3974	0.967689	2.70943	0.704777	31.9622
0.94445	2.42006	0.945016	2.42008	0.450301	19.2772	0.861198	36.2762	0.234679	10.0152	0.966326	2.71318	0.706233	30.6441
0.942018	2.42001	0.942583	2.42002	0.451617	18.5429	0.860817	34.8001	0.236121	9.66586	0.964973	2.71698	0.707705	29.4357
0.939593	2.41997	0.940156	2.41998	0.452962	17.8674	0.860426	33.4378	0.237604	9.34551	0.963629	2.72083	0.709191	28.3241
0.937175	2.41995	0.937736	2.41996	0.454337	17.2442	0.860024	32.1767	0.239125	9.05079	0.962296	2.72472	0.71069	27.2981
0.934764	2.41995	0.935324	2.41995	0.455739	16.6673	0.859613	31.0059	0.240684	8.77884	0.960972	2.72867	0.712201	26.3481
0.93236	2.41997	0.932918	2.41996	0.457167	16.1319	0.859192	29.916	0.242279	8.52721	0.959657	2.73267	0.713724	25.4661
0.929964	2.42	0.93052	2.41999	0.45862	15.6337	0.858763	28.8988	0.243908	8.29379	0.958351	2.73671	0.715257	24.6449
0.927574	2.42006	0.928129	2.42004	0.460096	15.169	0.858326	27.9474	0.245569	8.07674	0.957054	2.7408	0.7168	23.8786
0.925193	2.42013	0.925746	2.42011	0.461594	14.7345	0.857882	27.0555	0.247262	7.87445	0.955765	2.74494	0.718352	23.1618
0.922819	2.42023	0.92337	2.42021	0.463112	14.3274	0.857431	26.2177	0.248761	7.70911	0.954485	2.74913	0.719912	22.4898
0.920453	2.42035	0.921003	2.42032	0.46465	13.9453	0.856973	25.4292	0.250056	7.57554	0.953213	2.75336	0.72148	21.8587
0.918096	2.42049	0.918643	2.42045	0.466207	13.5859	0.856509	24.6859	0.251139	7.46988	0.95195	2.75765	0.723056	21.2647
0.915746	2.42065	0.916291	2.42061	0.467782	13.2473	0.85604	23.9838	0.252002	7.38922	0.950694	2.76198	0.724638	20.7048
0.913405	2.42083	0.913948	2.42079	0.469372	12.9277	0.855565	23.3198	0.25264	7.33147	0.949446	2.76636	0.726227	20.176
0.911072	2.42104	0.911613	2.42099	0.470979	12.6256	0.855087	22.6907	0.253051	7.29518	0.948205	2.77078	0.727821	19.6758
0.908748	2.42128	0.909287	2.42122	0.4726	12.3396	0.854604	22.094	0.253643	7.24391	0.946972	2.77526	0.729421	19.202
0.906432	2.42153	0.906969	2.42147	0.474235	12.0684	0.854118	21.5271	0.25429	7.18934	0.945746	2.77978	0.731027	18.7526
0.904125	2.42181	0.904661	2.42175	0.475883	11.811	0.85363	20.9879	0.255174	7.11701	0.944528	2.78435	0.732637	18.3257
0.901828	2.42212	0.902361	2.42205	0.477543	11.5662	0.853139	20.4744	0.256301	7.02849	0.943316	2.78897	0.734251	17.9196
0.899539	2.42245	0.90007	2.42237	0.479215	11.3333	0.852646	19.9849	0.257675	6.92565	0.942112	2.79363	0.73587	17.5329
0.89726	2.42282	0.897789	2.42273	0.480897	11.1114	0.852152	19.5177	0.259302	6.81051	0.940914	2.79835	0.737492	17.1642
0.89499	2.4232	0.895516	2.42311	0.482589	10.8996	0.851657	19.0713	0.261189	6.68518	0.939723	2.80311	0.739118	16.8123
0.892729	2.42362	0.893254	2.42352	0.484291	10.6974	0.851161	18.6443	0.263096	6.56659	0.938538	2.80792	0.740747	16.4761
0.890478	2.42406	0.891	2.42396	0.486002	10.5041	0.850666	18.2356	0.265022	6.4542	0.93736	2.81277	0.742379	16.1545
0.888236	2.42453	0.888757	2.42442	0.487721	10.3191	0.850171	17.844	0.266965	6.34756	0.936188	2.81768	0.744014	15.8466
0.886005	2.42504	0.886523	2.42492	0.489447	10.1419	0.849677	17.4684	0.268925	6.24624	0.935023	2.82263	0.74565	15.5516
0.883783	2.42557	0.884299	2.42544	0.49118	9.97202	0.849184	17.108	0.270901	6.14985	0.933863	2.82763	0.747289	15.2686
0.881571	2.42613	0.882085	2.426	0.49292	9.80898	0.848694	16.7618	0.272891	6.05806	0.932709	2.83268	0.74893	14.9969
0.87937	2.42672	0.87988	2.42658	0.494666	9.65241	0.848206	16.429	0.274895	5.97053	0.931561	2.83778	0.750573	14.7359
0.877178	2.42734	0.877686	2.4272	0.496417	9.5019	0.847721	16.1088	0.276912	5.88698	0.930419	2.84293	0.752216	14.4849
0.874996	2.428	0.875502	2.42784	0.498173	9.35712	0.847239	15.8006	0.278941	5.80714	0.929283	2.84812	0.753861	14.2434
0.872825	2.42869	0.873329	2.42852	0.499933	9.21774	0.846761	15.5037	0.28098	5.73077	0.928152	2.85337	0.755507	14.0108
0.870664	2.42941	0.871165	2.42924	0.501697	9.08345	0.846287	15.2175	0.28303	5.65765	0.927026	2.85866	0.757153	13.7867
0.868513	2.43016	0.869012	2.42998	0.503465	8.95399	0.845818	14.9414	0.285089	5.58756	0.925905	2.864	0.7588	13.5706
0.866373	2.43095	0.86687	2.43076	0.505236	8.82908	0.845353	14.675	0.287157	5.52032	0.92479	2.86939	0.760447	13.362
0.864243	2.43177	0.864737	2.43157	0.507009	8.7085	0.844895	14.4178	0.289233	5.45575	0.92368	2.87483	0.762094	13.1606
0.862124	2.43262	0.862615	2.43242	0.508785	8.592	0.844442	14.1692	0.291315	5.3937	0.922574	2.88032	0.76374	12.966
0.860014	2.43351	0.860504	2.4333	0.510562	8.47939	0.843995	13.9289	0.293404	5.334	0.921474	2.88586	0.765386	12.7779
0.857916	2.43443	0.858403	2.43421	0.512341	8.37047	0.843555	13.6965	0.295498	5.27653	0.920378	2.89144	0.767032	12.5959
0.855828	2.43539	0.856312	2.43516	0.514121	8.26505	0.843122	13.4716	0.297597	5.22115	0.919287	2.89708	0.768676	12.4198
0.85375	2.43638	0.854232	2.43615	0.515901	8.16296	0.842697	13.2539	0.2997	5.16775	0.9182	2.90277	0.770319	12.2492
0.851683	2.43741	0.852162	2.43717	0.517681	8.06404	0.84228	13.043	0.301807	5.11621	0.917117	2.9085	0.771961	12.0839
0.849626	2.43848	0.850103	2.43822	0.519232	7.98031	0.841871	12.8387	0.303916	5.06642	0.916039	2.91429	0.773602	11.9237
0.84758	2.43958	0.848054	2.43932	0.520554	7.91067	0.84147	12.6406	0.306028	5.0183	0.914964	2.92012	0.77524	11.7683
0.845544	2.44071	0.846016	2.44045	0.521647	7.85425	0.841079	12.4484	0.308141	4.97175	0.913894	2.92601	0.776877	11.6175
0.843518	2.44189	0.843988	2.44161	0.522511	7.81037	0.840697	12.262	0.310255	4.92668	0.912827	2.93194	0.778511	11.4711
0.841502	2.4431	0.84197	2.44281	0.523146	7.7785	0.840325	12.0811	0.31237	4.88303	0.911765	2.93793	0.780143	11.3288
0.839497	2.44434	0.839962	2.44405	0.523553	7.75828	0.839963	11.9054	0.314484	4.8407	0.910705	2.94396	0.781772	11.1906
0.837502	2.44563	0.837965	2.44532	0.524136	7.72945	0.839612	11.7347	0.316597	4.79965	0.909649	2.95005	0.783398	11.0563
0.835517	2.44695	0.835977	2.44664	0.524771	7.69842	0.839272	11.5689	0.318709	4.75979	0.908596	2.95618	0.785021	10.9256
0.833542	2.4483	0.834	2.44798	0.525634	7.65673	0.838943	11.4078	0.320818	4.72107	0.907547	2.96237	0.786641	10.7985
0.831576	2.4497	0.832032	2.44937	0.526724	7.60484	0.838625	11.2511	0.322925	4.68343	0.9065	2.9686	0.788257	10.6747
0.829621	2.45113	0.830075	2.45079	0.528042	7.54328	0.83832	11.0987	0.325029	4.64681	0.905456	2.97489	0.789869	10.5542
0.827675	2.4526	0.828126	2.45225	0.529585	7.47268	0.838028	10.9504	0.327129	4.61118	0.904415	2.98122	0.791478	10.4368
0.825739	2.4541	0.826188	2.45375	0.531355	7.39373	0.837748	10.8061	0.329225	4.57647	0.903377	2.98761	0.793082	10.3223
0.823812	2.45565	0.824259	2.45528	0.533121	7.31689	0.837481	10.6656	0.331316	4.54264	0.90234	2.99404	0.794682	10.2108
0.821894	2.45722	0.822339	2.45685	0.534884	7.24209	0.837228	10.5289	0.333402	4.50965	0.901306	3.00053	0.796277	10.102
0.819986	2.45884	0.820429	2.45846	0.536643	7.16922	0.836988	10.3956	0.335481	4.47746	0.900274	3.00706	0.797867	9.99587
0.818087	2.4605	0.818528	2.46011	0.538398	7.09822	0.836763	10.2658	0.337555	4.44603	0.899244	3.01365	0.799452	9.89229
0.816196	2.46219	0.816635	2.46179	0.540149	7.029	0.836552	10.1394	0.339621	4.41532	0.898215	3.02028	0.801032	9.79116
0.814315	2.46391	0.814751	2.46351	0.541895	6.9615	0.836356	10.0161	0.34168	4.3853	0.897188	3.02697	0.802607	9.69241
0.812442	2.46568	0.812876	2.46526	0.543636	6.89563	0.836176	9.89586	0.343731	4.35595	0.896162	3.0337	0.804175	9.59593
0.810577	2.46748	0.81101	2.46705	0.545372	6.83134	0.836011	9.77864	0.345774	4.32721	0.895137	3.04048	0.805738	9.50165
0.808721	2.46931	0.809151	2.46888	0.547102	6.76857	0.835861	9.6643	0.347808	4.29908	0.894113	3.04731	0.807295	9.40949
0.806872	2.47118	0.807301	2.47074	0.548827	6.70725	0.835728	9.55275	0.349832	4.27152	0.89309	3.05419	0.808845	9.31936
0.805032	2.47309	0.805459	2.47264	0.550545	6.64734	0.835612	9.4439	0.351847	4.24449	0.892068	3.06112	0.810388	9.23121
0.803199	2.47503	0.803624	2.47458	0.552256	6.58876	0.835512	9.33766	0.353851	4.21799	0.891045	3.0681	0.811925	9.14496
0.801373	2.47701	0.801797	2.47655	0.553961	6.53149	0.835429	9.23395	0.355845	4.19198	0.890023	3.07513	0.813455	9.06054
0.799555	2.47902	0.799977	2.47855	0.555658	6.47545	0.835364	9.13269	0.357827	4.16645	0.889	3.0822	0.814977	8.9779
0.797744	2.48107	0.798164	2.48059	0.557348	6.42062	0.835317	9.0338	0.359798	4.14136	0.887978	3.08932	0.816492	8.89697
0.795939	2.48315	0.796358	2.48266	0.55903	6.36694	0.835288	8.93721	0.361756	4.11671	0.886954	3.09649	0.817999	8.81769
0.794141	2.48526	0.794559	2.48477	0.560704	6.31438	0.835277	8.84286	0.363702	4.09247	0.88593	3.10371	0.819499	8.74001
0.79235	2.48741	0.792766	2.48691	0.56237	6.26289	0.835284	8.75067	0.365635	4.06862	0.884904	3.11097	0.82099	8.66388
0.790564	2.48959	0.790978	2.48908	0.564027	6.21243	0.835311	8.66058	0.367554	4.04514	0.883878	3.11828	0.822473	8.58925
0.788784	2.4918	0.789197	2.49128	0.565675	6.16297	0.835357	8.57253	0.36946	4.02203	0.882849	3.12564	0.823947	8.51606
0.78701	2.49404	0.787422	2.49351	0.567313	6.11447	0.835413	8.49741	0.371352	3.99926	0.881819	3.13304	0.825225	8.45343
0.78524	2.49631	0.785651	2.49578	0.568943	6.0669	0.835472	8.43454	0.373229	3.97682	0.880786	3.14048	0.826309	8.40086
0.783476	2.49861	0.783886	2.49808	0.570562	6.02023	0.83553	8.38333	0.375091	3.95469	0.879752	3.14797	0.827201	8.35794
0.781716	2.50095	0.782125	2.5004	0.572171	5.97442	0.83558	8.34334	0.376938	3.93286	0.878714	3.15551	0.827904	8.32436
0.779961	2.50331	0.780368	2.50276	0.57377	5.92945	0.835621	8.31422	0.37877	3.91132	0.877673	3.16308	0.82842	8.29986
0.778209	2.50569	0.778616	2.50514	0.575358	5.88528	0.835648	8.2957	0.380585	3.89006	0.876629	3.1707	0.828749	8.28426
0.776461	2.50811	0.776867	2.50755	0.576936	5.8419	0.835689	8.26924	0.382384	3.86906	0.875582	3.17836	0.829222	8.26196
0.774716	2.51055	0.775122	2.50998	0.578502	5.79927	0.835736	8.2407	0.384167	3.84832	0.87453	3.18607	0.829734	8.23787
0.772974	2.51302	0.773379	2.51244	0.580057	5.75737	0.835804	8.20224	0.385934	3.82782	0.873475	3.19381	0.830429	8.20536
0.771235	2.51551	0.771639	2.51493	0.5816	5.71618	0.835897	8.15419	0.387683	3.80755	0.872414	3.20159	0.831305	8.16465
0.769497	2.51802	0.769901	2.51744	0.583132	5.67567	0.83602	8.09695	0.389415	3.78751	0.871349	3.20941	0.83236	8.11603
0.767762	2.52056	0.768165	2.51997	0.584651	5.63582	0.83618	8.03098	0.39113	3.76769	0.870279	3.21728	0.833589	8.05981
0.766027	2.52311	0.76643	2.52252	0.586158	5.59662	0.836382	7.95681	0.392827	3.74808	0.869203	3.22517	0.834991	7.99635
0.764293	2.52569	0.764696	2.52509	0.587653	5.55803	0.836606	7.88423	0.394506	3.72867	0.868121	3.23311	0.836383	7.934
0.762559	2.52828	0.762962	2.52768	0.589135	5.52005	0.836851	7.81321	0.396168	3.70945	0.867033	3.24108	0.837764	7.87272
0.760826	2.53089	0.761229	2.53028	0.590604	5.48264	0.837118	7.74369	0.397812	3.69043	0.865938	3.24908	0.839135	7.81248
0.759091	2.53351	0.759494	2.5329	0.59206	5.44581	0.837407	7.67564	0.399437	3.67158	0.864836	3.25712	0.840494	7.75324
0.757356	2.53615	0.757759	2.53554	0.593502	5.40952	0.837719	7.60903	0.401045	3.65292	0.863726	3.26519	0.841843	7.69498
0.755618	2.5388	0.756022	2.53818	0.594932	5.37376	0.838052	7.54381	0.402634	3.63442	0.862609	3.27329	0.843181	7.63767
0.753878	2.54146	0.754283	2.54084	0.596347	5.33852	0.838408	7.47995	0.404206	3.61609	0.861484	3.28142	0.844508	7.58129
0.752136	2.54413	0.752541	2.54351	0.597749	5.30377	0.838787	7.41742	0.405759	3.59793	0.86035	3.28959	0.845823	7.52581
0.75039	2.5468	0.750796	2.54618	0.599137	5.26952	0.839188	7.35617	0.407294	3.57992	0.859207	3.29777	0.847127	7.4712
0.74864	2.54948	0.749047	2.54886	0.600511	5.23574	0.839612	7.29619	0.408811	3.56207	0.858055	3.30599	0.848419	7.41744
0.746886	2.55217	0.747294	2.55154	0.601871	5.20242	0.840059	7.23743	0.41031	3.54438	0.856893	3.31423	0.8497	7.3645
0.745126	2.55485	0.745536	2.55423	0.603216	5.16954	0.840529	7.17987	0.411792	3.52683	0.855721	3.3225	0.850968	7.31237
0.743361	2.55753	0.743772	2.55691	0.604548	5.1371	0.841023	7.12348	0.413256	3.50943	0.854539	3.33079	0.852225	7.26102
0.741589	2.56021	0.742001	2.55959	0.605865	5.10508	0.841539	7.06822	0.414702	3.49218	0.853345	3.3391	0.85347	7.21044
0.73981	2.56288	0.740224	2.56226	0.607167	5.07348	0.842079	7.01408	0.416131	3.47506	0.85214	3.34743	0.854702	7.1606
0.738023	2.56554	0.738439	2.56492	0.608455	5.04227	0.842642	6.96101	0.417543	3.45809	0.850924	3.35578	0.855923	7.11148
0.736228	2.56819	0.736646	2.56758	0.609728	5.01146	0.843228	6.90901	0.418939	3.44126	0.849695	3.36415	0.857131	7.06307
0.734424	2.57083	0.734845	2.57022	0.610987	4.98103	0.843838	6.85804	0.420317	3.42457	0.848454	3.37254	0.858327	7.01535
0.732611	2.57346	0.733033	2.57285	0.612231	4.95096	0.844471	6.80807	0.42168	3.40801	0.847199	3.38094	0.859511	6.96829
0.730787	2.57606	0.731212	2.57546	0.61346	4.92127	0.845127	6.75909	0.423027	3.39159	0.845932	3.38935	0.860682	6.92189
0.728952	2.57865	0.72938	2.57805	0.614675	4.89192	0.845807	6.71106	0.424358	3.37531	0.84465	3.39778	0.861841	6.87613
0.727106	2.58121	0.727536	2.58062	0.615875	4.86293	0.84651	6.66397	0.425674	3.35917	0.843355	3.40621	0.862987	6.831
0.725248	2.58375	0.725681	2.58316	0.61706	4.83427	0.847236	6.6178	0.426974	3.34316	0.842045	3.41466	0.864122	6.78647
0.723377	2.58626	0.723813	2.58568	0.618231	4.80594	0.847985	6.57252	0.428261	3.32728	0.84072	3.42311	0.865243	6.74254
0.721493	2.58875	0.721932	2.58817	0.619388	4.77794	0.848757	6.52811	0.429533	3.31154	0.83938	3.43157	0.866353	6.69919
0.719595	2.5912	0.720038	2.59063	0.62053	4.75025	0.849552	6.48454	0.430792	3.29593	0.838025	3.44004	0.86745	6.65641
0.717684	2.59362	0.718129	2.59306	0.621657	4.72287	0.85037	6.44181	0.432037	3.28046	0.836654	3.44851	0.868535	6.61418
0.715758	2.596	0.716207	2.59545	0.622771	4.6958	0.85121	6.39989	0.43327	3.26513	0.835266	3.45698	0.869608	6.5725
0.713816	2.59835	0.714269	2.59781	0.62387	4.66902	0.852074	6.35876	0.43449	3.24993	0.833862	3.46546	0.870669	6.53135
0.71186	2.60066	0.712316	2.60012	0.624956	4.64254	0.852959	6.31841	0.435699	3.23487	0.832441	3.47393	0.871718	6.49072
0.709888	2.60292	0.710348	2.6024	0.626027	4.61634	0.853867	6.2788	0.436896	3.21995	0.831004	3.48241	0.872755	6.4506
0.707901	2.60515	0.708364	2.60464	0.627085	4.59043	0.854796	6.23994	0.438082	3.20516	0.829549	3.49088	0.87378	6.41098
0.705897	2.60733	0.706364	2.60683	0.62813	4.56479	0.855748	6.20179	0.439258	3.19051	0.828076	3.49935	0.874794	6.37185
0.703877	2.60947	0.704348	2.60898	0.629161	4.53943	0.856721	6.16434	0.440423	3.176	0.826586	3.50782	0.875796	6.33321
0.701841	2.61157	0.702316	2.61108	0.630178	4.51433	0.857715	6.12758	0.441579	3.16163	0.825077	3.51628	0.876787	6.29503
0.699789	2.61362	0.700267	2.61315	0.631183	4.48949	0.85873	6.09149	0.442727	3.1474	0.823551	3.52474	0.877766	6.25732
0.69772	2.61562	0.698203	2.61516	0.632175	4.46492	0.859767	6.05606	0.443865	3.13331	0.822006	3.53319	0.878735	6.22006
0.695635	2.61758	0.696121	2.61713	0.633155	4.4406	0.860824	6.02126	0.444996	3.11936	0.820443	3.54163	0.879693	6.18325
0.693534	2.61949	0.694024	2.61905	0.634122	4.41653	0.861901	5.98708	0.446119	3.10555	0.818862	3.55007	0.88064	6.14687
0.691417	2.62136	0.691911	2.62093	0.635077	4.39271	0.862998	5.95351	0.447236	3.09188	0.817262	3.5585	0.881578	6.11093
0.689284	2.62318	0.689782	2.62276	0.63602	4.36913	0.864115	5.92054	0.448346	3.07836	0.815644	3.56692	0.882505	6.07541
0.687136	2.62495	0.687637	2.62454	0.636952	4.3458	0.865252	5.88814	0.449449	3.06498	0.814006	3.57533	0.883422	6.04031
0.684972	2.62668	0.685476	2.62628	0.637872	4.3227	0.866407	5.85631	0.450548	3.05174	0.812351	3.58374	0.88433	6.00561
0.682793	2.62836	0.683301	2.62797	0.638781	4.29984	0.867582	5.82503	0.451641	3.03864	0.810676	3.59214	0.885228	5.97132
0.680599	2.63	0.68111	2.62962	0.63968	4.27721	0.868775	5.79429	0.45273	3.02569	0.808983	3.60053	0.886117	5.93743
0.67839	2.63159	0.678905	2.63123	0.640567	4.25481	0.869985	5.76408	0.453814	3.01288	0.807272	3.60891	0.886998	5.90393
0.676168	2.63315	0.676686	2.63279	0.641445	4.23263	0.871214	5.73438	0.454895	3.00022	0.805542	3.61728	0.88787	5.87081
0.673931	2.63466	0.674452	2.63431	0.642313	4.21069	0.87246	5.70518	0.455973	2.9877	0.803794	3.62565	0.888734	5.83808
0.671681	2.63612	0.672206	2.63579	0.643171	4.18896	0.873723	5.67646	0.457049	2.97533	0.802028	3.63401	0.889591	5.80572
0.669419	2.63755	0.669946	2.63722	0.64402	4.16745	0.875003	5.64823	0.458121	2.9631	0.800244	3.64236	0.890439	5.77372
0.667143	2.63894	0.667673	2.63862	0.644859	4.14616	0.876299	5.62046	0.459193	2.95102	0.798442	3.65071	0.891281	5.7421
0.664855	2.6403	0.665388	2.63998	0.64569	4.12509	0.877611	5.59314	0.460262	2.93908	0.796623	3.65906	0.892116	5.71083
0.662555	2.64161	0.663091	2.64131	0.646513	4.10423	0.878939	5.56627	0.461331	2.92729	0.794787	3.6674	0.892945	5.67992
0.660244	2.64289	0.660782	2.6426	0.647327	4.08358	0.880282	5.53983	0.462399	2.91564	0.792933	3.67574	0.893768	5.64936
0.657921	2.64414	0.658462	2.64385	0.648134	4.06314	0.881639	5.51381	0.463467	2.90414	0.791063	3.68408	0.894585	5.61915
0.655588	2.64535	0.656132	2.64507	0.648933	4.0429	0.883011	5.4882	0.464536	2.89278	0.789176	3.69242	0.895397	5.58928
