Sym0		Sym1		Sym2		Sym3		Asym1		Asym2		Asym3	
409  Points		409  Points		379  Points		219  Points		400  Points		329  Points		210  Points	
Freq (MHz)	Vgr (m/ms)	Freq (MHz)	Vgr (m/ms)	Freq (MHz)	Vgr (m/ms)	Freq (MHz)	Vgr (m/ms)	Freq (MHz)	Vgr (m/ms)	Freq (MHz)	Vgr (m/ms)	Freq (MHz)	Vgr (m/ms)
1.00119	2.12467	1.00069	2.12314	0.433086	0.261505	0.866025	-0.00324277	0.216513	0.0673702	1.00005	1.27103	0.808529	0.0157457
0.999077	2.12146	0.998573	2.11999	0.433347	0.351725	0.866021	-0.00439028	0.21658	0.103991	0.998779	1.27176	0.808545	0.0307303
0.996968	2.11514	0.996464	2.11369	0.433787	0.525324	0.866016	-0.00679288	0.21672	0.177108	0.997512	1.27332	0.808591	0.0606916
0.994864	2.10892	0.994362	2.10741	0.434393	0.683773	0.866008	-0.00917156	0.216933	0.249853	0.996243	1.27507	0.808666	0.0906296
0.992767	2.1027	0.992266	2.10117	0.435149	0.825096	0.865998	-0.0115024	0.217218	0.322115	0.994972	1.27699	0.808771	0.120521
0.990675	2.09651	0.990177	2.09502	0.436037	0.949065	0.865985	-0.0139109	0.217574	0.393671	0.993699	1.27911	0.808906	0.150318
0.98859	2.09036	0.988093	2.08896	0.43704	1.05661	0.86597	-0.0162147	0.218002	0.46442	0.992424	1.28135	0.809071	0.179928
0.986511	2.08432	0.986015	2.0829	0.438142	1.14934	0.865953	-0.0184824	0.218499	0.534248	0.991146	1.28383	0.809264	0.209336
0.984438	2.07837	0.983944	2.07694	0.439329	1.22906	0.865933	-0.0207647	0.219066	0.602929	0.989866	1.28655	0.809488	0.238601
0.982371	2.07247	0.981878	2.07108	0.44059	1.2976	0.865911	-0.0229894	0.2197	0.670529	0.988583	1.28939	0.80974	0.267666
0.98031	2.06663	0.979818	2.06526	0.441914	1.35677	0.865887	-0.0251856	0.220402	0.736834	0.987298	1.29247	0.810021	0.296505
0.978254	2.06086	0.977764	2.05951	0.443293	1.40804	0.865861	-0.0273248	0.221168	0.801674	0.986009	1.29576	0.81033	0.325064
0.976204	2.05521	0.975715	2.05382	0.444719	1.45269	0.865833	-0.0294366	0.221999	0.865144	0.984717	1.29924	0.810668	0.353325
0.97416	2.04962	0.973673	2.04825	0.446187	1.4919	0.865802	-0.0314938	0.222892	0.92709	0.983421	1.30298	0.811034	0.381334
0.972121	2.04407	0.971635	2.04283	0.447691	1.52646	0.86577	-0.0334417	0.223846	0.98737	0.982121	1.3069	0.811428	0.409015
0.970088	2.0387	0.969603	2.03745	0.449227	1.5571	0.865736	-0.0353442	0.224859	1.04606	0.980817	1.31102	0.811849	0.436297
0.96806	2.03342	0.967576	2.03214	0.450793	1.5845	0.8657	-0.0372427	0.225929	1.10311	0.979509	1.31545	0.812297	0.463217
0.966037	2.02823	0.965555	2.02697	0.452384	1.60915	0.865662	-0.0390464	0.227056	1.15846	0.978197	1.32006	0.812772	0.489846
0.96402	2.02314	0.963539	2.02194	0.453998	1.63141	0.865622	-0.0407472	0.228237	1.21206	0.97688	1.32486	0.813273	0.516065
0.962007	2.01816	0.961527	2.01697	0.455634	1.65167	0.86558	-0.0424157	0.22947	1.26388	0.975558	1.32995	0.8138	0.541811
0.96	2.01331	0.959521	2.01216	0.457288	1.67017	0.865537	-0.0440195	0.230755	1.31404	0.97423	1.33529	0.814352	0.567218
0.957997	2.00854	0.957519	2.00748	0.458961	1.68714	0.865493	-0.0454937	0.232088	1.36246	0.972898	1.34084	0.81493	0.592207
0.955998	2.00395	0.955522	2.00288	0.460649	1.70281	0.865447	-0.0468824	0.233469	1.40911	0.971559	1.34667	0.815532	0.616707
0.954005	1.99953	0.953529	1.99845	0.462353	1.71725	0.865399	-0.0481865	0.234895	1.45406	0.970215	1.35268	0.816158	0.640748
0.952015	1.99521	0.951541	1.99418	0.46407	1.7307	0.865351	-0.049408	0.236365	1.49735	0.968865	1.359	0.816808	0.664391
0.95003	1.99098	0.949557	1.99006	0.4658	1.74321	0.865301	-0.0505512	0.237878	1.53902	0.967508	1.36556	0.817482	0.687587
0.948049	1.98695	0.947576	1.98606	0.467543	1.75488	0.86525	-0.0515377	0.239229	1.57407	0.966145	1.37235	0.818178	0.710232
0.946072	1.98312	0.9456	1.98223	0.469296	1.76584	0.865198	-0.0524708	0.240405	1.60293	0.964774	1.37944	0.818897	0.732471
0.944099	1.97945	0.943628	1.97855	0.47106	1.77614	0.865146	-0.0532969	0.241393	1.62608	0.963397	1.38677	0.819637	0.754244
0.942129	1.97593	0.941659	1.97508	0.472834	1.78582	0.865092	-0.053996	0.242184	1.64417	0.962012	1.39433	0.820399	0.775519
0.940163	1.97253	0.939693	1.9718	0.474618	1.79486	0.865038	-0.0546141	0.242771	1.65697	0.960619	1.40216	0.821182	0.796315
0.9382	1.96937	0.937731	1.96861	0.47641	1.80343	0.864983	-0.0550704	0.243149	1.66508	0.959218	1.41029	0.821985	0.816588
0.936239	1.96642	0.935772	1.96571	0.47821	1.81154	0.864928	-0.0553763	0.243696	1.67689	0.95781	1.41866	0.822809	0.836423
0.934282	1.96365	0.933815	1.96301	0.480018	1.8192	0.864873	-0.0556415	0.244295	1.68932	0.956392	1.42726	0.823652	0.855814
0.932328	1.96104	0.931861	1.96048	0.481834	1.82644	0.864817	-0.0557387	0.245116	1.70585	0.954966	1.43614	0.824513	0.874665
0.930376	1.9587	0.92991	1.95819	0.483657	1.8333	0.864762	-0.0556731	0.246166	1.72642	0.953532	1.44531	0.825394	0.89304
0.928426	1.95661	0.927961	1.95612	0.485486	1.83974	0.864707	-0.0555418	0.247452	1.75047	0.952087	1.45473	0.826292	0.910985
0.926478	1.95469	0.926013	1.95432	0.487322	1.84587	0.864651	-0.0552792	0.248984	1.77769	0.950634	1.46438	0.827209	0.928416
0.924532	1.95302	0.924067	1.95271	0.489163	1.85171	0.864596	-0.0548406	0.25077	1.80774	0.94917	1.47425	0.828142	0.945339
0.922588	1.95166	0.922123	1.95132	0.49101	1.85714	0.864542	-0.0542235	0.252585	1.83645	0.947697	1.48444	0.829092	0.961853
0.920644	1.9505	0.92018	1.95026	0.492863	1.8623	0.864488	-0.0535092	0.254428	1.8639	0.946213	1.49485	0.830058	0.977895
0.918702	1.94958	0.918238	1.94946	0.49472	1.86723	0.864436	-0.0526874	0.256298	1.8901	0.944719	1.50546	0.83104	0.993428
0.916761	1.94902	0.916297	1.94889	0.496582	1.87181	0.864383	-0.0516502	0.258193	1.91507	0.943214	1.51635	0.832037	1.00855
0.91482	1.9487	0.914356	1.94862	0.498449	1.87611	0.864333	-0.0504426	0.260113	1.93887	0.941698	1.52749	0.833049	1.02319
0.912879	1.94865	0.912415	1.94868	0.50032	1.88021	0.864283	-0.0491539	0.262056	1.96155	0.940171	1.53884	0.834075	1.03739
0.910938	1.94891	0.910474	1.94906	0.502194	1.884	0.864235	-0.0477031	0.26402	1.98321	0.938633	1.55045	0.835115	1.05114
0.908996	1.94952	0.908533	1.94973	0.504073	1.88759	0.864188	-0.0460148	0.266006	2.00374	0.937083	1.56223	0.836169	1.06444
0.907054	1.95047	0.90659	1.95073	0.505954	1.89094	0.864143	-0.044198	0.268012	2.02328	0.935521	1.57418	0.837236	1.07734
0.905111	1.95168	0.904647	1.95203	0.507839	1.89402	0.8641	-0.0422977	0.270037	2.04185	0.933947	1.58638	0.838315	1.08979
0.903166	1.95323	0.902702	1.95369	0.509727	1.89688	0.864059	-0.0401436	0.272079	2.05945	0.932361	1.59881	0.839407	1.10179
0.90122	1.9552	0.900755	1.9557	0.511618	1.89948	0.86402	-0.0378286	0.274139	2.07623	0.930762	1.61137	0.84051	1.11338
0.899272	1.95751	0.898806	1.95808	0.513511	1.9019	0.863983	-0.0353653	0.276215	2.09207	0.929151	1.62411	0.841625	1.12462
0.897321	1.96012	0.896854	1.96084	0.515407	1.90415	0.86395	-0.0326917	0.278307	2.10705	0.927527	1.63701	0.84275	1.13538
0.895367	1.96318	0.8949	1.96394	0.517304	1.90613	0.863918	-0.0298578	0.280413	2.12121	0.92589	1.65007	0.843886	1.14574
0.89341	1.9666	0.892942	1.96744	0.519204	1.90784	0.86389	-0.0268765	0.282532	2.13458	0.92424	1.66328	0.845033	1.15572
0.891449	1.97034	0.89098	1.97134	0.52086	1.90927	0.863865	-0.0236871	0.284665	2.14724	0.922577	1.67661	0.846189	1.16526
0.889485	1.97451	0.889015	1.97558	0.522274	1.91034	0.863843	-0.0203414	0.28681	2.15912	0.9209	1.6901	0.847354	1.17447
0.887516	1.97914	0.887045	1.98024	0.523443	1.9111	0.863824	-0.0167698	0.288966	2.1703	0.91921	1.70365	0.848528	1.18326
0.885542	1.98406	0.88507	1.98532	0.524367	1.91155	0.863809	-0.0130064	0.291133	2.18079	0.917506	1.71733	0.849711	1.19167
0.883564	1.98939	0.88309	1.99079	0.525047	1.91201	0.863798	-0.00911929	0.29331	2.19058	0.915789	1.73107	0.850902	1.19973
0.881579	1.99521	0.881104	1.99663	0.525483	1.91228	0.863791	-0.00498493	0.295497	2.19972	0.914058	1.74486	0.852101	1.20744
0.879589	2.00137	0.879113	2.00286	0.526109	1.9126	0.863788	-0.00070263	0.297692	2.20828	0.912313	1.75874	0.853307	1.21472
0.877593	2.0079	0.877115	2.00949	0.526789	1.91299	0.86379	0.00378889	0.299896	2.21624	0.910554	1.77265	0.854521	1.22165
0.875589	2.01479	0.87511	2.01652	0.527715	1.91329	0.863796	0.00852554	0.302107	2.22352	0.908782	1.78659	0.855741	1.22823
0.873579	2.02209	0.873098	2.02392	0.528885	1.91366	0.863807	0.0134058	0.304325	2.23032	0.906995	1.80053	0.856967	1.23447
0.871561	2.02983	0.871078	2.03168	0.530301	1.91406	0.863823	0.0184865	0.30655	2.23653	0.905195	1.81445	0.8582	1.24035
0.869535	2.03787	0.86905	2.03985	0.531963	1.91443	0.863844	0.023795	0.30878	2.24216	0.903381	1.82843	0.859438	1.24587
0.867502	2.04623	0.867015	2.04829	0.53387	1.91465	0.86387	0.029299	0.311016	2.24731	0.901553	1.84235	0.860682	1.25111
0.865459	2.05498	0.86497	2.05711	0.535777	1.91463	0.863902	0.0350206	0.313257	2.25196	0.899711	1.85615	0.861931	1.25595
0.863408	2.06399	0.862917	2.06626	0.537684	1.91445	0.86394	0.0409174	0.315502	2.25607	0.897855	1.86996	0.863184	1.26044
0.861348	2.07333	0.860854	2.07564	0.539591	1.91405	0.863984	0.0469914	0.317751	2.25968	0.895986	1.88372	0.864441	1.26464
0.859278	2.083	0.858782	2.0853	0.541497	1.91346	0.864033	0.053333	0.320004	2.26287	0.894103	1.89738	0.865703	1.26854
0.857198	2.09291	0.8567	2.09526	0.543402	1.91269	0.86409	0.0598634	0.322259	2.26551	0.892206	1.91091	0.866968	1.27209
0.855109	2.10301	0.854608	2.10547	0.545307	1.91174	0.864153	0.0665979	0.324517	2.26773	0.890296	1.92429	0.868237	1.2753
0.853009	2.11332	0.852506	2.11584	0.547211	1.91058	0.864222	0.0735673	0.326776	2.26954	0.888373	1.93762	0.869509	1.27817
0.850899	2.12391	0.850393	2.12644	0.549113	1.90921	0.864299	0.0807466	0.329038	2.27084	0.886436	1.95083	0.870783	1.28079
0.848778	2.13459	0.84827	2.13715	0.551014	1.90766	0.864383	0.0880855	0.3313	2.27174	0.884487	1.96383	0.87206	1.28307
0.846647	2.14539	0.846136	2.14801	0.552913	1.90589	0.864475	0.095657	0.333563	2.27224	0.882524	1.97665	0.873339	1.28504
0.844504	2.15631	0.843991	2.15897	0.554811	1.90397	0.864574	0.103521	0.335827	2.27231	0.880549	1.9893	0.87462	1.28671
0.842351	2.16734	0.841835	2.16998	0.556706	1.90188	0.864681	0.111535	0.33809	2.27196	0.878561	2.00176	0.875902	1.28808
0.840187	2.17847	0.839668	2.18107	0.558599	1.89953	0.864796	0.119764	0.340352	2.27118	0.876561	2.01405	0.877186	1.28916
0.838012	2.18954	0.83749	2.19217	0.56049	1.89702	0.86492	0.12825	0.342614	2.27005	0.874549	2.02613	0.87847	1.28994
0.835825	2.2006	0.835301	2.20327	0.562378	1.89433	0.865052	0.136901	0.344874	2.26853	0.872525	2.038	0.879756	1.29046
0.833628	2.21172	0.833101	2.21437	0.564263	1.89143	0.865192	0.145798	0.347133	2.2666	0.87049	2.04959	0.881041	1.29063
0.831419	2.22277	0.83089	2.2254	0.566146	1.88833	0.865342	0.154925	0.34939	2.2643	0.868442	2.06092	0.882327	1.29054
0.8292	2.2337	0.828668	2.23629	0.568025	1.88505	0.865501	0.164254	0.351644	2.26158	0.866384	2.07203	0.883612	1.29018
0.82697	2.24455	0.826435	2.24713	0.569901	1.88158	0.865647	0.172626	0.353895	2.25854	0.864315	2.08292	0.884897	1.28954
0.824729	2.25533	0.824192	2.25791	0.571773	1.8779	0.865777	0.179798	0.356143	2.25515	0.862235	2.0935	0.886181	1.28863
0.822477	2.26596	0.821938	2.26845	0.573642	1.87403	0.865889	0.185781	0.358387	2.25138	0.860144	2.10385	0.887464	1.28739
0.820215	2.2764	0.819673	2.27887	0.575506	1.86997	0.86598	0.190745	0.360628	2.24719	0.858044	2.11387	0.888581	1.28619
0.817942	2.2867	0.817398	2.28914	0.577367	1.86573	0.866049	0.194431	0.362864	2.24272	0.855933	2.1236	0.889532	1.285
0.81566	2.29682	0.815113	2.29921	0.579223	1.86131	0.866093	0.196591	0.365095	2.23788	0.853814	2.13302	0.890318	1.28383
0.813367	2.30676	0.812818	2.30911	0.581075	1.85667	0.866158	0.19994	0.367322	2.23265	0.851684	2.14214	0.890939	1.28282
0.811064	2.31648	0.810513	2.31876	0.582922	1.85184	0.86623	0.203719	0.369543	2.22713	0.849546	2.15103	0.891395	1.28201
0.808752	2.32595	0.808199	2.3282	0.584764	1.84683	0.86633	0.208647	0.371758	2.22125	0.847399	2.15954	0.891687	1.28161
0.806431	2.33529	0.805875	2.33745	0.586601	1.84159	0.866459	0.215159	0.373968	2.21506	0.845244	2.16771	0.892106	1.28089
0.8041	2.34433	0.803542	2.34651	0.588432	1.8362	0.866621	0.223072	0.376171	2.20849	0.843081	2.17557	0.892561	1.27995
0.801761	2.35315	0.801201	2.35526	0.590258	1.83064	0.866819	0.23255	0.378367	2.20157	0.840911	2.18314	0.89318	1.27891
0.799413	2.36179	0.798851	2.36375	0.592079	1.82483	0.867056	0.243583	0.380556	2.19439	0.838732	2.19038	0.893962	1.27726
0.797056	2.37012	0.796492	2.37208	0.593894	1.81885	0.867304	0.25482	0.382738	2.18685	0.836547	2.19725	0.894907	1.27516
0.794691	2.37821	0.794125	2.38014	0.595702	1.8127	0.867564	0.266287	0.384913	2.17897	0.834355	2.20378	0.896012	1.27263
0.792319	2.38607	0.791751	2.38795	0.597505	1.80633	0.867835	0.278001	0.387079	2.17082	0.832157	2.21001	0.897278	1.26943
0.789938	2.39373	0.789368	2.39552	0.5993	1.7998	0.868118	0.289924	0.389237	2.16233	0.829953	2.21587	0.898541	1.26601
0.78755	2.40117	0.786979	2.40285	0.60109	1.79308	0.868412	0.302038	0.391386	2.15349	0.827743	2.22136	0.8998	1.2623
0.785155	2.40833	0.784582	2.40997	0.602872	1.78616	0.868719	0.314379	0.393527	2.14443	0.825528	2.22652	0.901056	1.25841
0.782753	2.4152	0.782178	2.41685	0.604648	1.77906	0.869039	0.326918	0.395658	2.13505	0.823308	2.23131	0.902307	1.2543
0.780344	2.42192	0.779767	2.42349	0.606416	1.77179	0.869371	0.339688	0.39778	2.12534	0.821083	2.23577	0.903554	1.24991
0.777928	2.42842	0.77735	2.42993	0.608177	1.76434	0.869715	0.352659	0.399892	2.11536	0.818854	2.23993	0.904797	1.24533
0.775506	2.43467	0.774927	2.43614	0.609931	1.75671	0.870073	0.365817	0.401994	2.10514	0.816621	2.24365	0.906035	1.24052
0.773078	2.44075	0.772497	2.44215	0.611677	1.74887	0.870444	0.379243	0.404086	2.09456	0.814384	2.24702	0.907268	1.23548
0.770644	2.44658	0.770062	2.44793	0.613415	1.74083	0.870828	0.392845	0.406166	2.08373	0.812145	2.25004	0.908496	1.23027
0.768205	2.45219	0.767621	2.45352	0.615145	1.73269	0.871227	0.406579	0.408236	2.07268	0.809902	2.25268	0.909719	1.22489
0.765759	2.45759	0.765174	2.45887	0.616866	1.72438	0.871638	0.420552	0.410295	2.06135	0.807657	2.25503	0.910936	1.21926
0.763309	2.46286	0.762723	2.46404	0.61858	1.71585	0.872064	0.434775	0.412343	2.04975	0.80541	2.25696	0.912148	1.21341
0.760853	2.46793	0.760266	2.4691	0.620284	1.70716	0.872505	0.449166	0.414378	2.03792	0.803161	2.25848	0.913354	1.2074
0.758393	2.47277	0.757804	2.47392	0.621981	1.69831	0.872959	0.463684	0.416402	2.0259	0.800911	2.25969	0.914553	1.20124
0.755927	2.47745	0.755338	2.47853	0.623668	1.68934	0.873428	0.47844	0.418414	2.01356	0.79866	2.26055	0.915746	1.19491
0.753457	2.48194	0.752867	2.483	0.625346	1.68017	0.873912	0.4934	0.420413	2.00107	0.796408	2.26098	0.916933	1.18841
0.750983	2.48632	0.750392	2.48733	0.627015	1.67082	0.874411	0.508463	0.4224	1.98836	0.794156	2.26106	0.918114	1.18173
0.748505	2.4905	0.747912	2.49149	0.628674	1.66138	0.874925	0.523708	0.424374	1.97543	0.791904	2.26078	0.919287	1.17489
0.746022	2.49453	0.745428	2.49548	0.630324	1.65181	0.875454	0.539173	0.426335	1.96233	0.789652	2.26014	0.920454	1.16787
0.743535	2.49842	0.742941	2.49929	0.631965	1.64204	0.875999	0.554792	0.428283	1.94906	0.787402	2.25911	0.921614	1.16076
0.741045	2.50213	0.74045	2.50302	0.633595	1.63212	0.876559	0.570574	0.430218	1.93567	0.785152	2.25766	0.922767	1.15352
0.738551	2.50573	0.737955	2.50658	0.635216	1.62214	0.877136	0.586481	0.432139	1.92204	0.782904	2.25588	0.923912	1.14613
0.736054	2.50921	0.735456	2.50998	0.636827	1.61199	0.877728	0.602538	0.434047	1.90829	0.780658	2.25371	0.92505	1.13867
0.733553	2.51254	0.732955	2.5133	0.638427	1.60172	0.878336	0.618755	0.435941	1.89449	0.778415	2.25111	0.92618	1.13104
0.731048	2.51572	0.73045	2.51648	0.640017	1.5913	0.87896	0.635054	0.437821	1.88048	0.776174	2.24817	0.927303	1.12332
0.728541	2.5188	0.727942	2.51954	0.641597	1.5808	0.879601	0.651522	0.439687	1.86641	0.773936	2.24488	0.928418	1.11557
0.726031	2.52174	0.725431	2.52246	0.643166	1.57022	0.880258	0.668119	0.441539	1.85227	0.771702	2.24116	0.929525	1.10766
0.723518	2.52459	0.722917	2.52526	0.644725	1.55947	0.880932	0.684824	0.443377	1.83801	0.769472	2.237	0.930624	1.09972
0.721002	2.52735	0.7204	2.528	0.646273	1.54868	0.881622	0.701669	0.4452	1.82373	0.767246	2.23251	0.931716	1.09167
0.718483	2.53	0.717881	2.53063	0.64781	1.53783	0.88233	0.718585	0.44701	1.80939	0.765025	2.22761	0.932799	1.08358
0.715962	2.53254	0.715359	2.53312	0.649336	1.52681	0.883054	0.735579	0.448805	1.79499	0.762808	2.2223	0.933874	1.07546
0.713438	2.53493	0.712835	2.53549	0.650851	1.51571	0.883795	0.752698	0.450585	1.78064	0.760598	2.21662	0.934941	1.06728
0.710912	2.53728	0.710308	2.5378	0.652356	1.50462	0.884553	0.769924	0.452352	1.76631	0.758393	2.21055	0.936	1.05908
0.708384	2.53956	0.70778	2.54008	0.653849	1.49348	0.885329	0.78716	0.454104	1.75191	0.756194	2.20404	0.937051	1.05081
0.705853	2.54168	0.705248	2.54223	0.655331	1.48223	0.886121	0.804444	0.455842	1.73757	0.754002	2.19708	0.938094	1.04261
0.703321	2.54377	0.702715	2.54426	0.656801	1.47089	0.886931	0.821839	0.457565	1.72333	0.751817	2.18976	0.939128	1.03435
0.700786	2.54577	0.70018	2.54624	0.658261	1.45954	0.887759	0.839289	0.459275	1.70915	0.74964	2.18205	0.940154	1.02606
0.698249	2.54769	0.697643	2.54813	0.659709	1.44824	0.888603	0.856767	0.46097	1.69499	0.747471	2.17392	0.941172	1.01784
0.695711	2.54954	0.695104	2.54992	0.661146	1.43682	0.889465	0.874259	0.462651	1.68094	0.74531	2.16536	0.942182	1.00966
0.693171	2.55125	0.692563	2.55168	0.662571	1.42539	0.890345	0.891757	0.464318	1.66702	0.743157	2.15638	0.943183	1.00145
0.690629	2.55294	0.690021	2.55337	0.663985	1.414	0.891242	0.90926	0.465972	1.65326	0.741014	2.14701	0.944177	0.993273
0.688085	2.55457	0.687477	2.55492	0.665388	1.40259	0.892156	0.92685	0.467612	1.63958	0.73888	2.13719	0.945162	0.985198
0.68554	2.55612	0.684932	2.55648	0.666779	1.39116	0.893088	0.944398	0.469238	1.62606	0.736757	2.12691	0.946139	0.977175
0.682993	2.55765	0.682384	2.55796	0.668159	1.37973	0.894037	0.961882	0.470851	1.61281	0.734643	2.11622	0.947108	0.96922
0.680445	2.55905	0.679836	2.55934	0.669528	1.36838	0.895004	0.97942	0.472451	1.59964	0.732541	2.10509	0.94807	0.961342
0.677895	2.56039	0.677286	2.56072	0.670885	1.35703	0.895988	0.996855	0.474037	1.58668	0.73045	2.09356	0.949024	0.953504
0.675344	2.56169	0.674735	2.56201	0.672231	1.34572	0.89699	1.01428	0.475611	1.57396	0.72837	2.0816	0.949969	0.945772
0.672792	2.56289	0.672182	2.56321	0.673566	1.33443	0.898009	1.0317	0.477173	1.56145	0.726303	2.06919	0.950908	0.938179
0.670239	2.56409	0.669629	2.56438	0.674889	1.3232	0.899045	1.04904	0.478722	1.54917	0.724249	2.05635	0.951838	0.930656
0.667685	2.56527	0.667074	2.56552	0.676202	1.31208	0.900099	1.06629	0.480259	1.53714	0.722207	2.04306	0.952761	0.923255
0.665129	2.56632	0.664518	2.56658	0.677503	1.30097	0.901169	1.08344	0.481784	1.52541	0.720179	2.0293	0.953677	0.916001
0.662572	2.56731	0.661961	2.56757	0.678793	1.28996	0.902257	1.10052	0.483298	1.51386	0.718164	2.01513	0.954586	0.908865
0.660015	2.56832	0.659403	2.56851	0.680073	1.27904	0.903361	1.11755	0.4848	1.50263	0.716164	2.00058	0.955488	0.901873
0.657456	2.56923	0.656845	2.56945	0.681341	1.2682	0.904483	1.13447	0.486291	1.49173	0.714179	1.9855	0.956383	0.895041
0.654897	2.57009	0.654285	2.57028	0.682599	1.2575	0.905621	1.15125	0.487771	1.48108	0.712209	1.96998	0.957271	0.888375
0.652336	2.57094	0.651725	2.57108	0.683846	1.24686	0.906776	1.16791	0.489241	1.47072	0.710255	1.95404	0.958152	0.881836
0.649775	2.5717	0.649163	2.5719	0.685083	1.2363	0.907948	1.18444	0.490701	1.4607	0.708317	1.93766	0.959028	0.875446
0.647213	2.57242	0.646601	2.57259	0.686309	1.22591	0.909136	1.20084	0.492151	1.45096	0.706395	1.92084	0.959896	0.869262
0.644651	2.57309	0.644039	2.57326	0.687525	1.21568	0.91034	1.21711	0.493591	1.44158	0.70449	1.90359	0.960759	0.863266
0.642088	2.57374	0.641475	2.57392	0.688731	1.20554	0.91156	1.23325	0.495023	1.43252	0.702603	1.8859	0.961616	0.857495
0.639524	2.57435	0.638911	2.57446	0.689926	1.19553	0.912797	1.24921	0.496445	1.42378	0.700733	1.86777	0.962467	0.85188
0.636959	2.57487	0.636347	2.57501	0.691112	1.18568	0.914049	1.26495	0.497859	1.41539	0.698882	1.84919	0.963313	0.846429
