Sym0		Sym1		Sym2		Sym3		Asym1		Asym2		Asym3	
411  Points		411  Points		379  Points		222  Points		399  Points		335  Points		217  Points	
Freq (MHz)	Vph (m/ms)	Freq (MHz)	Vph (m/ms)	Freq (MHz)	Vph (m/ms)	Freq (MHz)	Vph (m/ms)	Freq (MHz)	Vph (m/ms)	Freq (MHz)	Vph (m/ms)	Freq (MHz)	Vph (m/ms)
1.0016	2.48227	1.00155	2.48229	0.433048	651.556	0.866025	28962.1	0.216539	228.345	1.00058	3.04991	0.795578	1121.83
0.999445	2.48305	0.999393	2.48307	0.433234	260.88	0.866024	844.139	0.216645	111.424	0.999346	3.05542	0.795618	466.582
0.997293	2.48385	0.997241	2.48387	0.433574	163.201	0.866019	428.309	0.216824	73.741	0.998108	3.06095	0.79569	294.566
0.995148	2.48467	0.995096	2.48469	0.43406	118.832	0.866011	286.951	0.217075	55.146	0.996869	3.06652	0.795795	215.239
0.993009	2.48551	0.992958	2.48553	0.434684	93.5059	0.865999	215.745	0.217398	44.0756	0.995631	3.07212	0.795932	169.59
0.990878	2.48637	0.990826	2.48639	0.435433	77.1394	0.865985	172.851	0.217793	36.737	0.994391	3.07776	0.796101	139.929
0.988753	2.48726	0.988702	2.48728	0.436296	65.6996	0.865967	144.183	0.218257	31.5198	0.993152	3.08342	0.796302	119.112
0.986634	2.48816	0.986584	2.48818	0.437261	57.2571	0.865946	123.67	0.218791	27.6235	0.991911	3.08913	0.796535	103.697
0.984523	2.48909	0.984472	2.48911	0.438317	50.7733	0.865922	108.266	0.219393	24.6053	0.99067	3.09486	0.7968	91.825
0.982418	2.49004	0.982367	2.49006	0.439453	45.6392	0.865895	96.2735	0.220062	22.2005	0.989427	3.10063	0.797096	82.4008
0.98032	2.49101	0.980269	2.49103	0.44066	41.4744	0.865865	86.672	0.220798	20.2408	0.988184	3.10643	0.797423	74.7391
0.978228	2.492	0.978178	2.49202	0.44193	38.0289	0.865832	78.8111	0.221597	18.6145	0.986939	3.11226	0.79778	68.3883
0.976143	2.49301	0.976093	2.49304	0.443255	35.1318	0.865796	72.2569	0.22246	17.2442	0.985692	3.11812	0.798168	63.0392
0.974064	2.49405	0.974014	2.49407	0.44463	32.6623	0.865757	66.7085	0.223385	16.0748	0.984443	3.12401	0.798586	58.4724
0.971992	2.49511	0.971942	2.49513	0.446049	30.5325	0.865716	61.9508	0.224369	15.0658	0.983193	3.12994	0.799033	54.5285
0.969925	2.49618	0.969876	2.49621	0.447507	28.6772	0.865671	57.8261	0.225411	14.1869	0.981941	3.13589	0.79951	51.0884
0.967866	2.49728	0.967816	2.49731	0.449	27.0465	0.865624	54.2158	0.226511	13.4152	0.980686	3.14188	0.800015	48.0618
0.965812	2.49841	0.965763	2.49843	0.450525	25.6023	0.865574	51.0293	0.227665	12.7324	0.979428	3.1479	0.800549	45.3785
0.963765	2.49955	0.963715	2.49958	0.452078	24.3143	0.865522	48.1961	0.228872	12.1246	0.978168	3.15394	0.80111	42.9835
0.961723	2.50072	0.961674	2.50074	0.453658	23.1587	0.865467	45.6606	0.230131	11.5802	0.976905	3.16002	0.801698	40.8329
0.959687	2.5019	0.959638	2.50193	0.455261	22.116	0.86541	43.3781	0.23144	11.0902	0.975639	3.16612	0.802313	38.8913
0.957658	2.50311	0.957609	2.50314	0.456885	21.1706	0.86535	41.3126	0.232796	10.6471	0.974369	3.17226	0.802955	37.1297
0.955634	2.50434	0.955585	2.50437	0.45853	20.3095	0.865289	39.4345	0.234199	10.2446	0.973096	3.17842	0.803621	35.5244
0.953616	2.50559	0.953567	2.50562	0.460193	19.5219	0.865225	37.7194	0.235647	9.87753	0.971819	3.18461	0.804314	34.0555
0.951603	2.50686	0.951554	2.50689	0.461873	18.7988	0.865159	36.147	0.237137	9.54165	0.970538	3.19082	0.80503	32.7065
0.949596	2.50816	0.949547	2.50819	0.463568	18.1328	0.865091	34.7001	0.238669	9.23324	0.969252	3.19707	0.805771	31.4634
0.947594	2.50947	0.947545	2.5095	0.465278	17.5172	0.865022	33.3644	0.240036	8.98445	0.967962	3.20334	0.806535	30.3143
0.945597	2.51081	0.945549	2.51084	0.467002	16.9466	0.86495	32.1274	0.241225	8.78563	0.966668	3.20963	0.807323	29.2489
0.943605	2.51216	0.943557	2.51219	0.468738	16.4162	0.864877	30.9786	0.242223	8.62968	0.965368	3.21595	0.808132	28.2585
0.941619	2.51354	0.941571	2.51357	0.470486	15.9221	0.864803	29.9089	0.243022	8.51145	0.964063	3.2223	0.808964	27.3355
0.939637	2.51493	0.939589	2.51497	0.472245	15.4605	0.864728	28.9104	0.243615	8.42723	0.962753	3.22867	0.809817	26.4733
0.93766	2.51635	0.937612	2.51638	0.474015	15.0284	0.864651	27.9762	0.243997	8.37448	0.961437	3.23506	0.81069	25.6662
0.935687	2.51779	0.93564	2.51782	0.475795	14.623	0.864573	27.1003	0.244549	8.30019	0.960114	3.24147	0.811584	24.909
0.933719	2.51924	0.933672	2.51928	0.477583	14.242	0.864494	26.2775	0.245153	8.22144	0.958786	3.24791	0.812497	24.1973
0.931755	2.52072	0.931708	2.52075	0.479381	13.8832	0.864414	25.5029	0.245982	8.11752	0.957451	3.25437	0.81343	23.5272
0.929795	2.52221	0.929748	2.52225	0.481186	13.5448	0.864334	24.7726	0.247041	7.99112	0.956109	3.26085	0.814381	22.8951
0.927839	2.52373	0.927792	2.52376	0.482999	13.2251	0.864253	24.0828	0.248337	7.84529	0.954761	3.26735	0.81535	22.298
0.925887	2.52526	0.92584	2.52529	0.48482	12.9225	0.864172	23.4302	0.24988	7.68335	0.953404	3.27386	0.816336	21.733
0.923938	2.52681	0.923891	2.52684	0.486647	12.6357	0.86409	22.812	0.251678	7.50868	0.952041	3.2804	0.81734	21.1976
0.921993	2.52837	0.921946	2.52841	0.488481	12.3636	0.864008	22.2254	0.253504	7.34491	0.950669	3.28696	0.81836	20.6896
0.920051	2.52996	0.920004	2.53	0.490321	12.105	0.863927	21.6681	0.255358	7.19109	0.94929	3.29353	0.819396	20.207
0.918112	2.53156	0.918065	2.5316	0.492166	11.859	0.863846	21.138	0.257238	7.04638	0.947902	3.30012	0.820447	19.7478
0.916175	2.53318	0.916128	2.53321	0.494017	11.6246	0.863765	20.6332	0.259142	6.91001	0.946505	3.30672	0.821513	19.3106
0.914241	2.53481	0.914194	2.53485	0.495873	11.401	0.863684	20.1518	0.26107	6.78131	0.945099	3.31334	0.822594	18.8936
0.912309	2.53646	0.912263	2.5365	0.497734	11.1876	0.863605	19.6923	0.26302	6.65967	0.943684	3.31997	0.823689	18.4956
0.91038	2.53812	0.910333	2.53816	0.499599	10.9836	0.863526	19.2532	0.264991	6.54454	0.94226	3.32662	0.824797	18.1154
0.908452	2.5398	0.908405	2.53984	0.501468	10.7885	0.863448	18.8333	0.266983	6.43543	0.940826	3.33327	0.825918	17.7516
0.906525	2.54149	0.906479	2.54153	0.503341	10.6016	0.863372	18.4312	0.268994	6.33189	0.939382	3.33994	0.827052	17.4034
0.9046	2.5432	0.904554	2.54324	0.505218	10.4225	0.863297	18.0459	0.271024	6.23351	0.937927	3.34663	0.828197	17.0698
0.902676	2.54491	0.90263	2.54495	0.507098	10.2507	0.863224	17.6763	0.27307	6.13993	0.936463	3.35332	0.829355	16.7498
0.900753	2.54664	0.900707	2.54668	0.508982	10.0857	0.863152	17.3216	0.275134	6.05081	0.934987	3.36002	0.830524	16.4426
0.89883	2.54838	0.898784	2.54842	0.510868	9.92711	0.863083	16.9808	0.277212	5.96584	0.9335	3.36672	0.831703	16.1476
0.896907	2.55013	0.896861	2.55017	0.512756	9.77463	0.863015	16.6531	0.279306	5.88475	0.932002	3.37344	0.832893	15.8639
0.894984	2.55189	0.894938	2.55193	0.514647	9.62787	0.86295	16.3378	0.281413	5.80729	0.930493	3.38016	0.834093	15.591
0.89306	2.55366	0.893014	2.5537	0.51654	9.48652	0.862887	16.0343	0.283534	5.7332	0.928972	3.38689	0.835302	15.3282
0.891136	2.55543	0.89109	2.55547	0.518435	9.35028	0.862828	15.7418	0.285667	5.66229	0.927438	3.39362	0.836521	15.075
0.88921	2.55721	0.889164	2.55726	0.520088	9.23551	0.862771	15.4598	0.287811	5.59435	0.925893	3.40036	0.837748	14.8309
0.887283	2.559	0.887237	2.55904	0.521497	9.14045	0.862717	15.1878	0.289966	5.5292	0.924335	3.4071	0.838983	14.5954
0.885354	2.56079	0.885307	2.56084	0.522664	9.06369	0.862666	14.9252	0.292132	5.46666	0.922765	3.41385	0.840227	14.3681
0.883422	2.56259	0.883376	2.56263	0.523586	9.00415	0.86262	14.6716	0.294307	5.4066	0.921182	3.4206	0.841478	14.1485
0.881488	2.56439	0.881442	2.56443	0.524265	8.961	0.862576	14.4264	0.296491	5.34884	0.919585	3.42734	0.842736	13.9363
0.879551	2.56619	0.879504	2.56623	0.524699	8.93366	0.862537	14.1894	0.298683	5.29328	0.917976	3.43409	0.844001	13.731
0.87761	2.56799	0.877563	2.56803	0.525323	8.89472	0.862502	13.9601	0.300883	5.23977	0.916353	3.44085	0.845272	13.5324
0.875666	2.56979	0.875619	2.56983	0.526002	8.85289	0.862471	13.7381	0.30309	5.18821	0.914717	3.4476	0.84655	13.3402
0.873717	2.57159	0.87367	2.57163	0.526925	8.7968	0.862445	13.5232	0.305303	5.13849	0.913067	3.45434	0.847833	13.1539
0.871763	2.57338	0.871716	2.57342	0.528093	8.72716	0.862424	13.3149	0.307522	5.0905	0.911404	3.46109	0.849121	12.9734
0.869805	2.57517	0.869758	2.57521	0.529505	8.6448	0.862407	13.113	0.309747	5.04416	0.909726	3.46784	0.850415	12.7984
0.867841	2.57695	0.867793	2.577	0.531163	8.55068	0.862396	12.9172	0.311976	4.99938	0.908035	3.47458	0.851713	12.6287
0.865871	2.57873	0.865823	2.57877	0.533064	8.44588	0.86239	12.7272	0.31421	4.95607	0.906329	3.48133	0.853016	12.4639
0.863894	2.5805	0.863847	2.58054	0.534966	8.34433	0.86239	12.5428	0.316447	4.91416	0.90461	3.48807	0.854322	12.3039
0.861911	2.58226	0.861863	2.5823	0.536868	8.24588	0.862396	12.3638	0.318688	4.87357	0.902876	3.4948	0.855632	12.1485
0.859921	2.58401	0.859873	2.58405	0.538769	8.1504	0.862407	12.1899	0.320932	4.83425	0.901128	3.50154	0.856946	11.9975
0.857923	2.58574	0.857875	2.58578	0.540669	8.05773	0.862425	12.0209	0.323177	4.79612	0.899366	3.50827	0.858263	11.8507
0.855918	2.58747	0.855869	2.58751	0.542569	7.96777	0.86245	11.8567	0.325425	4.75913	0.897589	3.51499	0.859582	11.7079
0.853904	2.58917	0.853855	2.58921	0.544467	7.88038	0.862481	11.6969	0.327675	4.72323	0.895798	3.52172	0.860904	11.569
0.851881	2.59086	0.851832	2.59091	0.546365	7.79546	0.86252	11.5416	0.329925	4.68835	0.893993	3.52844	0.862228	11.4337
0.849849	2.59254	0.8498	2.59258	0.54826	7.7129	0.862565	11.3903	0.332176	4.65446	0.892174	3.53515	0.863553	11.302
0.847808	2.59419	0.847759	2.59423	0.550154	7.6326	0.862618	11.2432	0.334426	4.6215	0.89034	3.54187	0.86488	11.1737
0.845757	2.59583	0.845708	2.59587	0.552047	7.55446	0.862679	11.0999	0.336677	4.58943	0.888493	3.54858	0.866209	11.0487
0.843697	2.59745	0.843647	2.59749	0.553937	7.4784	0.862747	10.9603	0.338927	4.55821	0.886631	3.55528	0.867538	10.9268
0.841626	2.59904	0.841575	2.59908	0.555824	7.40432	0.862824	10.8243	0.341175	4.5278	0.884755	3.56199	0.868868	10.808
0.839544	2.60061	0.839494	2.60065	0.55771	7.33215	0.862909	10.6918	0.343423	4.49816	0.882865	3.56869	0.870198	10.6921
0.837452	2.60216	0.837401	2.6022	0.559592	7.2618	0.863002	10.5626	0.345668	4.46926	0.880962	3.57539	0.871528	10.579
0.835349	2.60368	0.835298	2.60372	0.561472	7.19322	0.863104	10.4366	0.34791	4.44107	0.879045	3.58209	0.872858	10.4685
0.833234	2.60518	0.833183	2.60522	0.563348	7.12633	0.863216	10.3137	0.350151	4.41355	0.877114	3.58879	0.874187	10.3607
0.831109	2.60665	0.831058	2.60669	0.565222	7.06106	0.863336	10.1938	0.352388	4.38667	0.87517	3.59549	0.875515	10.2554
0.828972	2.6081	0.828921	2.60813	0.567091	6.99735	0.863467	10.0769	0.354621	4.36041	0.873213	3.60219	0.876843	10.1525
0.826824	2.60952	0.826772	2.60955	0.568958	6.93514	0.863606	9.9627	0.356851	4.33474	0.871243	3.60889	0.878169	10.0519
0.824664	2.61091	0.824612	2.61094	0.57082	6.87438	0.863736	9.86542	0.359076	4.30963	0.869261	3.6156	0.879493	9.9536
0.822493	2.61227	0.822441	2.6123	0.572678	6.81501	0.863853	9.78407	0.361297	4.28506	0.867265	3.6223	0.880645	9.86969
0.820311	2.61361	0.820258	2.61364	0.574531	6.75698	0.863954	9.71787	0.363513	4.261	0.865258	3.62901	0.881627	9.79943
0.818117	2.61492	0.818064	2.61495	0.576381	6.70024	0.864037	9.6662	0.365723	4.23744	0.863238	3.63573	0.882437	9.74218
0.815911	2.61619	0.815858	2.61623	0.578225	6.64475	0.864099	9.62858	0.367928	4.21435	0.861206	3.64245	0.883077	9.69745
0.813694	2.61745	0.813641	2.61748	0.580065	6.59045	0.86414	9.60467	0.370127	4.19172	0.859163	3.64918	0.883547	9.66486
0.811466	2.61867	0.811412	2.6187	0.581899	6.53731	0.864199	9.57051	0.372319	4.16951	0.857108	3.65592	0.883848	9.64414
0.809227	2.61986	0.809173	2.61989	0.583728	6.48529	0.864265	9.53369	0.374505	4.14772	0.855042	3.66267	0.88428	9.61452
0.806977	2.62103	0.806923	2.62106	0.585552	6.43435	0.864357	9.48409	0.376683	4.12633	0.852966	3.66943	0.88475	9.58256
0.804716	2.62217	0.804661	2.6222	0.58737	6.38445	0.864477	9.42215	0.378855	4.10532	0.850878	3.67621	0.885387	9.53948
0.802444	2.62328	0.80239	2.62331	0.589182	6.33556	0.864627	9.3484	0.381018	4.08468	0.848781	3.68299	0.886193	9.48563
0.800162	2.62437	0.800107	2.62439	0.590988	6.28763	0.864812	9.26346	0.383173	4.06439	0.846674	3.6898	0.887165	9.42142
0.79787	2.62543	0.797815	2.62545	0.592787	6.24065	0.865035	9.16803	0.38532	4.04443	0.844557	3.69662	0.888304	9.34735
0.795568	2.62646	0.795512	2.62648	0.594581	6.19457	0.865269	9.07472	0.387458	4.0248	0.842431	3.70346	0.889607	9.26397
0.793256	2.62747	0.7932	2.62749	0.596367	6.14937	0.865515	8.98346	0.389588	4.00547	0.840295	3.71032	0.890906	9.18226
0.790935	2.62845	0.790878	2.62847	0.598147	6.10502	0.865774	8.8942	0.391707	3.98645	0.838152	3.7172	0.892201	9.10216
0.788604	2.62941	0.788547	2.62943	0.599919	6.06149	0.866045	8.80687	0.393818	3.9677	0.835999	3.7241	0.893491	9.02364
0.786264	2.63034	0.786207	2.63036	0.601684	6.01876	0.866328	8.72142	0.395918	3.94923	0.833839	3.73104	0.894777	8.94663
0.783915	2.63125	0.783858	2.63127	0.603442	5.97679	0.866625	8.63779	0.398008	3.93102	0.831671	3.73799	0.896059	8.8711
0.781558	2.63214	0.781501	2.63216	0.605192	5.93557	0.866935	8.55593	0.400087	3.91306	0.829496	3.74498	0.897335	8.79699
0.779192	2.633	0.779135	2.63302	0.606934	5.89507	0.867257	8.4758	0.402156	3.89535	0.827314	3.752	0.898606	8.72426
0.776819	2.63385	0.776761	2.63387	0.608669	5.85527	0.867594	8.39735	0.404213	3.87786	0.825125	3.75906	0.899872	8.65287
0.774437	2.63467	0.77438	2.63469	0.610395	5.81614	0.867944	8.32053	0.406259	3.8606	0.82293	3.76615	0.901132	8.58279
0.772048	2.63547	0.771991	2.63549	0.612112	5.77768	0.868308	8.24529	0.408293	3.84356	0.820729	3.77327	0.902386	8.51396
0.769652	2.63626	0.769594	2.63627	0.613821	5.73985	0.868687	8.17159	0.410316	3.82671	0.818522	3.78044	0.903634	8.44637
0.767248	2.63702	0.767191	2.63704	0.615522	5.70263	0.869079	8.0994	0.412326	3.81007	0.816311	3.78765	0.904876	8.37996
0.764838	2.63777	0.76478	2.63778	0.617213	5.66602	0.869486	8.02867	0.414324	3.79362	0.814094	3.7949	0.906111	8.3147
0.762421	2.63849	0.762363	2.63851	0.618896	5.62999	0.869908	7.95936	0.416309	3.77735	0.811873	3.8022	0.90734	8.25057
0.759998	2.63921	0.75994	2.63922	0.620569	5.59452	0.870345	7.89144	0.418282	3.76125	0.809648	3.80955	0.908562	8.18753
0.757569	2.6399	0.75751	2.63992	0.622233	5.5596	0.870797	7.82488	0.420241	3.74533	0.807419	3.81695	0.909777	8.12555
0.755134	2.64058	0.755075	2.64059	0.623887	5.52521	0.871265	7.75963	0.422187	3.72956	0.805187	3.82441	0.910985	8.0646
0.752692	2.64124	0.752634	2.64126	0.625532	5.49133	0.871748	7.69566	0.42412	3.71396	0.802952	3.83192	0.912186	8.00465
0.750246	2.64189	0.750187	2.64191	0.627166	5.45796	0.872246	7.63295	0.426039	3.6985	0.800714	3.83949	0.91338	7.94567
0.747794	2.64253	0.747735	2.64254	0.628791	5.42507	0.872761	7.57146	0.427944	3.6832	0.798474	3.84712	0.914566	7.88765
0.745337	2.64315	0.745278	2.64316	0.630405	5.39266	0.873291	7.51116	0.429836	3.66803	0.796233	3.85482	0.915744	7.83054
0.742875	2.64375	0.742816	2.64377	0.63201	5.36071	0.873838	7.45202	0.431713	3.653	0.793989	3.86259	0.916914	7.77433
0.740408	2.64435	0.740349	2.64436	0.633603	5.32921	0.874401	7.39402	0.433576	3.6381	0.791745	3.87042	0.918077	7.719
0.737937	2.64493	0.737878	2.64494	0.635187	5.29814	0.874981	7.33712	0.435425	3.62334	0.7895	3.87833	0.919231	7.66453
0.735462	2.6455	0.735402	2.64552	0.636759	5.26749	0.875577	7.28131	0.437259	3.60869	0.787254	3.88632	0.920378	7.61088
0.732982	2.64606	0.732922	2.64608	0.638321	5.23726	0.87619	7.22655	0.439079	3.59416	0.785009	3.89438	0.921516	7.55804
0.730498	2.64661	0.730438	2.64662	0.639872	5.20743	0.87682	7.17282	0.440884	3.57976	0.782764	3.90253	0.922646	7.50599
0.72801	2.64715	0.72795	2.64716	0.641412	5.17799	0.877467	7.1201	0.442675	3.56546	0.78052	3.91076	0.923767	7.4547
0.725518	2.64768	0.725458	2.64769	0.642941	5.14893	0.878131	7.06836	0.444451	3.55128	0.778277	3.91908	0.92488	7.40417
0.723023	2.6482	0.722963	2.64821	0.644459	5.12024	0.878812	7.01758	0.446213	3.5372	0.776036	3.92749	0.925985	7.35437
0.720524	2.64871	0.720464	2.64872	0.645965	5.09192	0.879511	6.96774	0.447959	3.52323	0.773796	3.936	0.927081	7.30529
0.718022	2.64921	0.717962	2.64922	0.64746	5.06395	0.880227	6.91882	0.449691	3.50936	0.771559	3.9446	0.928168	7.2569
0.715517	2.64971	0.715456	2.64972	0.648944	5.03632	0.880961	6.8708	0.451409	3.49559	0.769325	3.95331	0.929246	7.20919
0.713008	2.65019	0.712948	2.6502	0.650416	5.00902	0.881713	6.82365	0.453112	3.48192	0.767094	3.96213	0.930316	7.16215
0.710497	2.65067	0.710436	2.65068	0.651877	4.98206	0.882482	6.77736	0.4548	3.46835	0.764867	3.97105	0.931378	7.11576
0.707983	2.65114	0.707922	2.65115	0.653326	4.95541	0.883268	6.73191	0.456474	3.45488	0.762644	3.98009	0.93243	7.07
0.705466	2.65161	0.705405	2.65162	0.654764	4.92908	0.884073	6.68728	0.458134	3.44149	0.760424	3.98925	0.933474	7.02486
0.702946	2.65206	0.702885	2.65207	0.656189	4.90305	0.884896	6.64345	0.459779	3.4282	0.75821	3.99852	0.93451	6.98033
0.700424	2.65252	0.700363	2.65253	0.657604	4.87731	0.885736	6.6004	0.461411	3.41501	0.756001	4.00793	0.935536	6.93639
0.697899	2.65296	0.697838	2.65297	0.659006	4.85187	0.886594	6.55812	0.463028	3.4019	0.753798	4.01746	0.936554	6.89304
0.695372	2.6534	0.695311	2.65341	0.660397	4.82672	0.88747	6.51659	0.464632	3.38888	0.7516	4.02713	0.937564	6.85025
0.692843	2.65384	0.692782	2.65385	0.661776	4.80184	0.888365	6.47579	0.466222	3.37595	0.749409	4.03693	0.938564	6.80802
0.690312	2.65427	0.690251	2.65428	0.663144	4.77724	0.889277	6.43571	0.467798	3.36311	0.747225	4.04688	0.939557	6.76633
0.687778	2.65469	0.687717	2.6547	0.6645	4.7529	0.890207	6.39634	0.469362	3.35036	0.745048	4.05697	0.940541	6.72518
0.685243	2.65511	0.685182	2.65512	0.665844	4.72883	0.891155	6.35765	0.470912	3.3377	0.742879	4.06722	0.941517	6.68455
0.682705	2.65553	0.682644	2.65554	0.667176	4.70501	0.89212	6.31963	0.472449	3.32512	0.740718	4.07762	0.942484	6.64443
0.680166	2.65594	0.680105	2.65595	0.668497	4.68144	0.893104	6.28227	0.473974	3.31263	0.738565	4.08819	0.943443	6.60481
0.677625	2.65635	0.677564	2.65636	0.669807	4.65812	0.894105	6.24556	0.475487	3.30023	0.736422	4.09892	0.944395	6.56569
0.675083	2.65676	0.675021	2.65677	0.671105	4.63505	0.895124	6.20948	0.476988	3.28792	0.734288	4.10983	0.945338	6.52705
0.672538	2.65716	0.672477	2.65717	0.672392	4.6122	0.896161	6.17401	0.478477	3.27569	0.732164	4.12091	0.946274	6.48889
0.669993	2.65756	0.669931	2.65757	0.673667	4.5896	0.897216	6.13915	0.479954	3.26355	0.730049	4.13218	0.947202	6.45119
0.667445	2.65796	0.667384	2.65797	0.674931	4.56722	0.898288	6.10488	0.48142	3.2515	0.727946	4.14363	0.948122	6.41395
0.664897	2.65835	0.664835	2.65836	0.676184	4.54506	0.899377	6.07118	0.482876	3.23954	0.725854	4.15528	0.949035	6.37716
0.662347	2.65875	0.662285	2.65876	0.677426	4.52313	0.900483	6.03805	0.48432	3.22766	0.723773	4.16713	0.949941	6.3408
0.659795	2.65914	0.659734	2.65915	0.678657	4.50141	0.901607	6.00548	0.485755	3.21587	0.721705	4.17919	0.95084	6.30488
0.657243	2.65953	0.657181	2.65954	0.679878	4.47991	0.902748	5.97345	0.48718	3.20418	0.719649	4.19146	0.951731	6.26939
0.654689	2.65991	0.654628	2.65992	0.681087	4.45862	0.903906	5.94195	0.488595	3.19257	0.717606	4.20395	0.952616	6.23432
0.652135	2.6603	0.652073	2.66031	0.682286	4.43753	0.90508	5.91097	0.49	3.18105	0.715576	4.21666	0.953495	6.19966
0.649579	2.66068	0.649517	2.66069	0.683475	4.41665	0.906271	5.88049	0.491397	3.16963	0.71356	4.22961	0.954367	6.1654
0.647022	2.66107	0.64696	2.66108	0.684653	4.39597	0.907479	5.85052	0.492786	3.15829	0.711559	4.24279	0.955233	6.13154
0.644464	2.66145	0.644403	2.66146	0.685821	4.37549	0.908703	5.82103	0.494166	3.14705	0.709572	4.25623	0.956093	6.09807
0.641906	2.66183	0.641844	2.66184	0.686979	4.3552	0.909943	5.79202	0.495538	3.1359	0.707601	4.26991	0.956948	6.06499
0.639346	2.66222	0.639284	2.66222	0.688128	4.33511	0.911199	5.76347	0.496903	3.12484	0.705645	4.28386	0.957796	6.03229
0.636786	2.6626	0.636724	2.66261	0.689266	4.31521	0.912471	5.73539	0.498261	3.11387	0.703705	4.29807	0.95864	5.99997
0.634225	2.66298	0.634163	2.66299	0.690396	4.29549	0.913758	5.70774	0.499612	3.103	0.701782	4.31256	0.959478	5.96801
