Sym0		Sym1		Sym2		Sym3		Asym1		Asym2	
389  Points		390  Points		366  Points		199  Points		400  Points		295  Points	
Freq (MHz)	Vgr (m/ms)	Freq (MHz)	Vgr (m/ms)	Freq (MHz)	Vgr (m/ms)	Freq (MHz)	Vgr (m/ms)	Freq (MHz)	Vgr (m/ms)	Freq (MHz)	Vgr (m/ms)
1.001	2.3862	1.00177	2.38421	0.491381	0.0820209	0.866027	0.00527674	0.216534	0.101347	0.649519	9.45318e-005
0.99862	2.38929	0.999398	2.38728	0.491463	0.124873	0.866032	0.00721116	0.216635	0.138429	0.649519	8.83235e-005
0.996237	2.39535	0.997017	2.39335	0.49163	0.209927	0.866041	0.0111079	0.21681	0.21241	0.649519	0.00015636
0.993848	2.40131	0.99463	2.39935	0.491881	0.293547	0.866054	0.0149149	0.217058	0.28593	0.649519	0.000292433
0.991454	2.40718	0.992238	2.40527	0.492214	0.375164	0.866071	0.0187159	0.217379	0.358875	0.64952	0.000391256
0.989053	2.41286	0.989839	2.41104	0.492628	0.454338	0.866092	0.0225915	0.217773	0.431102	0.64952	0.000502241
0.986647	2.41848	0.987435	2.4167	0.49312	0.53079	0.866116	0.0264429	0.218238	0.502415	0.649521	0.000637549
0.984236	2.42402	0.985025	2.42221	0.493686	0.60414	0.866144	0.0303325	0.218774	0.572764	0.649521	0.000821504
0.981818	2.42936	0.98261	2.42759	0.494323	0.674143	0.866176	0.034212	0.219379	0.641967	0.649522	0.00101609
0.979396	2.4346	0.980189	2.43289	0.495028	0.740748	0.866212	0.0380713	0.220053	0.709918	0.649524	0.00123195
0.976969	2.43969	0.977763	2.43804	0.495799	0.803849	0.866252	0.0419768	0.220793	0.776577	0.649525	0.00149033
0.974536	2.44468	0.975332	2.44305	0.49663	0.863495	0.866296	0.0458879	0.2216	0.84178	0.649526	0.00174711
0.972099	2.44954	0.972896	2.44796	0.497519	0.919698	0.866344	0.0498105	0.22247	0.905543	0.649528	0.00208736
0.969657	2.45424	0.970456	2.45275	0.498462	0.972567	0.866395	0.0537558	0.223403	0.967727	0.649531	0.00250786
0.96721	2.45888	0.96801	2.45739	0.499456	1.02224	0.866451	0.0577467	0.224398	1.02831	0.649533	0.00291556
0.964758	2.46338	0.965561	2.4619	0.500498	1.06879	0.86651	0.061742	0.225452	1.08726	0.649536	0.00338432
0.962303	2.4677	0.963106	2.46632	0.501585	1.11252	0.866574	0.0657463	0.226564	1.14449	0.64954	0.00397519
0.959843	2.47194	0.960648	2.47059	0.502714	1.15342	0.866641	0.0697684	0.227732	1.20001	0.649544	0.00455031
0.957378	2.47607	0.958185	2.4747	0.503883	1.19173	0.866713	0.0738262	0.228954	1.25378	0.649549	0.00518057
0.95491	2.48008	0.955718	2.47875	0.505088	1.22771	0.866788	0.0779554	0.230229	1.30595	0.649555	0.00592113
0.952438	2.48394	0.953247	2.4827	0.506329	1.26145	0.866868	0.0820541	0.231382	1.34999	0.649561	0.00670896
0.949962	2.48769	0.950772	2.48653	0.507601	1.29305	0.866952	0.0861784	0.232395	1.38648	0.649568	0.00759132
0.947482	2.49137	0.948294	2.4902	0.508904	1.3227	0.86704	0.0903538	0.233252	1.41592	0.649576	0.0085761
0.944999	2.49491	0.945812	2.49372	0.510236	1.35055	0.867132	0.094545	0.233943	1.43878	0.649585	0.00959237
0.942512	2.49836	0.943326	2.49721	0.511595	1.37679	0.867228	0.0987675	0.234458	1.45527	0.649595	0.0106716
0.940022	2.50169	0.940837	2.50064	0.512979	1.40144	0.867329	0.103053	0.23479	1.46574	0.649606	0.0118769
0.937529	2.5049	0.938345	2.50387	0.514387	1.42467	0.867433	0.107377	0.235272	1.48069	0.649619	0.0131609
0.935032	2.50802	0.935849	2.50702	0.515817	1.4466	0.867542	0.111693	0.235802	1.49661	0.649633	0.0145155
0.932533	2.51106	0.933351	2.51013	0.517268	1.46724	0.867656	0.116078	0.236531	1.51799	0.649648	0.0160115
0.93003	2.51402	0.930849	2.51304	0.51874	1.48675	0.867774	0.120514	0.237468	1.54441	0.649665	0.0176169
0.927525	2.5169	0.928344	2.51592	0.52023	1.50525	0.867896	0.124968	0.238622	1.57553	0.649683	0.0192679
0.925016	2.51962	0.925837	2.51874	0.521738	1.52274	0.868023	0.129455	0.240006	1.611	0.649703	0.0210099
0.922505	2.5223	0.923327	2.52144	0.523263	1.53925	0.868154	0.13401	0.24163	1.65021	0.649725	0.022934
0.919992	2.52489	0.920814	2.52405	0.524804	1.55496	0.86829	0.138613	0.243293	1.68788	0.649749	0.0249624
0.917476	2.52738	0.918299	2.52659	0.526361	1.56991	0.86843	0.143226	0.244992	1.7241	0.649774	0.0270259
0.914957	2.52984	0.915781	2.52907	0.527932	1.58403	0.868575	0.147947	0.246727	1.75888	0.649802	0.0292464
0.912436	2.53216	0.913261	2.53142	0.529516	1.59744	0.868725	0.152707	0.248496	1.79218	0.649833	0.0316076
0.909913	2.53447	0.910738	2.53371	0.531114	1.61024	0.868879	0.157463	0.250297	1.82412	0.649865	0.0340766
0.907387	2.53666	0.908214	2.53595	0.532724	1.62241	0.869038	0.162293	0.25213	1.85479	0.649901	0.0366749
0.90486	2.53878	0.905687	2.53808	0.534346	1.63401	0.869202	0.167188	0.253992	1.88411	0.649938	0.0393584
0.90233	2.54085	0.903158	2.54018	0.535979	1.64507	0.869371	0.172125	0.255883	1.91221	0.649979	0.042212
0.899798	2.54283	0.900627	2.5422	0.537623	1.65558	0.869545	0.177146	0.257801	1.93913	0.650023	0.0452329
0.897265	2.5448	0.898093	2.54417	0.539277	1.66558	0.869724	0.182248	0.259746	1.96485	0.650069	0.048328
0.894729	2.54665	0.895558	2.54604	0.540941	1.67511	0.869908	0.187339	0.261716	1.98945	0.650119	0.0515719
0.892192	2.54846	0.893022	2.54786	0.542614	1.68421	0.870097	0.192494	0.263709	2.01302	0.650172	0.0549398
0.889652	2.55025	0.890483	2.54969	0.544296	1.69296	0.870292	0.197779	0.265726	2.03555	0.650228	0.0584692
0.887111	2.55193	0.887943	2.55135	0.545986	1.70126	0.870491	0.203061	0.267764	2.05704	0.650288	0.0621482
0.884569	2.55355	0.885401	2.55303	0.547685	1.70911	0.870696	0.208426	0.269823	2.07758	0.650352	0.0659531
0.882025	2.55514	0.882857	2.55465	0.549171	1.71571	0.870907	0.21387	0.271903	2.09716	0.65042	0.0699231
0.879479	2.55667	0.880312	2.55616	0.550443	1.72114	0.871122	0.219386	0.274001	2.11588	0.650491	0.0740499
0.876932	2.55818	0.877765	2.5577	0.551497	1.72548	0.871344	0.224957	0.276118	2.13378	0.650567	0.0783171
0.874383	2.55964	0.875216	2.55914	0.552333	1.72873	0.87157	0.230553	0.278252	2.15083	0.650647	0.0826918
0.871833	2.56101	0.872667	2.56055	0.552948	1.73122	0.871803	0.236285	0.280402	2.16706	0.650732	0.0872814
0.869281	2.56234	0.870116	2.5619	0.553342	1.73277	0.872041	0.242116	0.282568	2.18251	0.650821	0.092041
0.866728	2.56363	0.867563	2.56321	0.55391	1.73489	0.872285	0.247971	0.28475	2.19725	0.650915	0.0968803
0.864174	2.56491	0.86501	2.56452	0.554527	1.73714	0.872535	0.253876	0.286945	2.21133	0.651014	0.101966
0.861619	2.56616	0.862455	2.56576	0.555368	1.74011	0.872791	0.259878	0.289155	2.22466	0.651105	0.106526
0.859062	2.56729	0.859899	2.56693	0.556434	1.74394	0.873053	0.265991	0.291377	2.23735	0.651185	0.110382
0.856505	2.56841	0.857341	2.56806	0.557726	1.74833	0.873321	0.27215	0.293612	2.24945	0.651253	0.113798
0.853946	2.56953	0.854783	2.56921	0.559246	1.75326	0.873595	0.278402	0.295858	2.26088	0.651309	0.116495
0.851386	2.57064	0.852223	2.57028	0.560995	1.75865	0.873875	0.284753	0.298115	2.27175	0.651351	0.118513
0.848825	2.57164	0.849663	2.5713	0.562749	1.76377	0.874162	0.291129	0.300384	2.28208	0.651378	0.119802
0.846263	2.57261	0.847101	2.57231	0.564509	1.76863	0.874455	0.297641	0.302662	2.29179	0.651418	0.121633
0.8437	2.57359	0.844539	2.57328	0.566272	1.77326	0.874755	0.304253	0.304949	2.30098	0.651461	0.123719
0.841137	2.57452	0.841975	2.57417	0.568041	1.77762	0.875061	0.310889	0.307245	2.30974	0.651522	0.126538
0.838572	2.57542	0.839411	2.5751	0.569814	1.78166	0.875374	0.317662	0.30955	2.31797	0.6516	0.130163
0.836006	2.57627	0.836845	2.576	0.57159	1.7855	0.875694	0.324535	0.311863	2.32564	0.651698	0.134676
0.83344	2.5771	0.834279	2.57684	0.57337	1.78916	0.876021	0.331435	0.314183	2.33294	0.651817	0.140105
0.830872	2.57789	0.831712	2.57766	0.575154	1.79259	0.876354	0.338475	0.31651	2.3398	0.65196	0.146438
0.828304	2.57869	0.829144	2.57842	0.576941	1.79573	0.876695	0.345623	0.318844	2.34618	0.652109	0.152984
0.825736	2.57943	0.826576	2.57918	0.578731	1.79865	0.877043	0.352813	0.321184	2.35214	0.652265	0.15968
0.823166	2.58013	0.824007	2.57991	0.580524	1.8014	0.877398	0.360085	0.323529	2.35772	0.652427	0.166538
0.820596	2.58084	0.821437	2.5806	0.58232	1.80391	0.877713	0.366597	0.32588	2.36289	0.652597	0.173606
0.818025	2.58148	0.818866	2.58128	0.584118	1.8062	0.877987	0.372157	0.328236	2.36764	0.652773	0.180867
0.815453	2.58214	0.816294	2.58194	0.585918	1.8083	0.878216	0.376711	0.330597	2.37206	0.652957	0.188267
0.812881	2.58277	0.813723	2.58258	0.58772	1.81022	0.878399	0.380416	0.332962	2.37613	0.653148	0.195867
0.810308	2.58335	0.81115	2.58315	0.589524	1.81191	0.878535	0.38322	0.33533	2.37981	0.653347	0.203697
0.807735	2.58388	0.808577	2.5837	0.591329	1.81341	0.878622	0.384965	0.337702	2.38312	0.653554	0.211685
0.805161	2.58444	0.806003	2.58426	0.593136	1.81477	0.878748	0.387419	0.340078	2.38617	0.653769	0.219839
0.802587	2.58495	0.803429	2.58479	0.594944	1.81588	0.878887	0.39018	0.342456	2.38886	0.653992	0.228205
0.800012	2.58546	0.800854	2.58533	0.596754	1.81678	0.879076	0.394041	0.344836	2.39116	0.654223	0.236721
0.797436	2.58594	0.798279	2.58581	0.598564	1.81749	0.879319	0.398853	0.347219	2.39317	0.654463	0.245486
0.794861	2.58638	0.795703	2.58624	0.600374	1.81806	0.879616	0.404659	0.349604	2.39496	0.654712	0.254461
0.792284	2.58684	0.793127	2.58667	0.602185	1.81848	0.879971	0.411665	0.35199	2.39637	0.65497	0.263542
0.789707	2.58724	0.79055	2.58709	0.603997	1.81864	0.880385	0.419759	0.354377	2.39747	0.655237	0.272849
0.78713	2.5876	0.787973	2.58749	0.605808	1.81868	0.880807	0.427923	0.356766	2.39832	0.655514	0.282399
0.784553	2.58797	0.785396	2.58788	0.60762	1.81853	0.881237	0.436207	0.359155	2.39888	0.6558	0.292113
0.781975	2.58837	0.782818	2.58821	0.609431	1.81815	0.881676	0.444596	0.361544	2.39916	0.656096	0.30204
0.779397	2.58864	0.78024	2.58852	0.611241	1.81765	0.882123	0.45308	0.363934	2.39917	0.656402	0.31216
0.776818	2.58894	0.777662	2.58889	0.613052	1.81697	0.882578	0.461699	0.366324	2.39891	0.656718	0.322463
0.774239	2.58926	0.775083	2.58919	0.614861	1.81611	0.883042	0.470428	0.368713	2.39835	0.657044	0.332944
0.77166	2.58956	0.772504	2.58944	0.616669	1.81512	0.883515	0.479255	0.371101	2.39751	0.657381	0.343688
0.769081	2.58981	0.769924	2.5897	0.618477	1.81393	0.883997	0.488175	0.373489	2.39648	0.657729	0.354606
0.766501	2.58998	0.767345	2.58994	0.620283	1.81251	0.884488	0.497229	0.375875	2.39518	0.658087	0.365698
0.763921	2.59021	0.764765	2.59016	0.622087	1.81098	0.884988	0.506392	0.37826	2.39358	0.658457	0.37705
0.761341	2.59043	0.762185	2.59035	0.62389	1.80935	0.885497	0.515609	0.380643	2.39179	0.658838	0.388576
0.758761	2.59059	0.759605	2.59056	0.625692	1.80749	0.886015	0.525028	0.383025	2.38972	0.659231	0.400318
0.756181	2.59076	0.757025	2.59072	0.627491	1.80544	0.886542	0.534504	0.385404	2.38743	0.659636	0.412256
0.7536	2.59091	0.754444	2.59085	0.629288	1.80324	0.887079	0.544095	0.38778	2.3849	0.660052	0.424378
0.75102	2.59103	0.751864	2.59095	0.631083	1.80093	0.887626	0.55383	0.390155	2.38211	0.660481	0.436721
0.748439	2.59112	0.749283	2.59107	0.632876	1.79843	0.888183	0.563637	0.392526	2.37907	0.660922	0.449306
0.745858	2.5912	0.746702	2.59121	0.634666	1.79575	0.888749	0.573567	0.394894	2.37582	0.661376	0.462055
0.743277	2.59127	0.744121	2.59123	0.636453	1.79294	0.889325	0.583602	0.397259	2.37238	0.661843	0.475016
0.740696	2.59132	0.74154	2.59128	0.638237	1.78997	0.889912	0.593775	0.39962	2.36866	0.662322	0.488212
0.738115	2.59134	0.738959	2.59138	0.640019	1.78684	0.890508	0.604019	0.401977	2.36472	0.662815	0.50157
0.735534	2.59137	0.736378	2.59139	0.641797	1.78358	0.891115	0.614426	0.40433	2.36054	0.663322	0.515139
0.732953	2.59136	0.733797	2.59134	0.643572	1.78014	0.891732	0.624917	0.406679	2.3562	0.663842	0.528986
0.730372	2.59134	0.731216	2.59133	0.645343	1.77655	0.89236	0.635535	0.409024	2.3516	0.664375	0.542972
0.727791	2.5913	0.728635	2.5913	0.647111	1.77285	0.892998	0.64626	0.411364	2.34679	0.664923	0.557158
0.72521	2.59121	0.726054	2.59123	0.648874	1.76896	0.893647	0.657039	0.413699	2.34179	0.665485	0.571618
0.722629	2.59113	0.723473	2.59119	0.650634	1.76494	0.894307	0.667975	0.416029	2.33651	0.666062	0.586213
0.720048	2.59104	0.720892	2.59111	0.65239	1.76076	0.894978	0.679033	0.418353	2.33105	0.666653	0.601008
0.717468	2.59096	0.718311	2.59095	0.654142	1.75646	0.89566	0.690195	0.420672	2.32542	0.667259	0.616031
0.714887	2.59079	0.715731	2.5908	0.655889	1.75202	0.896353	0.701452	0.422986	2.31953	0.66788	0.631255
0.712307	2.59062	0.71315	2.59067	0.657632	1.74741	0.897057	0.7128	0.425293	2.31347	0.668517	0.64671
0.709726	2.59046	0.71057	2.59051	0.65937	1.74272	0.897773	0.72428	0.427594	2.30723	0.669168	0.662324
0.707146	2.59023	0.70799	2.59035	0.661104	1.73787	0.8985	0.735827	0.429889	2.30073	0.669836	0.678104
0.704566	2.59003	0.70541	2.59013	0.662832	1.73284	0.899238	0.747493	0.432177	2.29401	0.670519	0.69414
0.701987	2.58981	0.70283	2.58984	0.664556	1.72773	0.899989	0.759306	0.434459	2.28714	0.671219	0.710391
0.699407	2.58953	0.700251	2.58963	0.666274	1.72248	0.900751	0.771149	0.436733	2.28016	0.671934	0.726792
0.696828	2.58924	0.697672	2.58937	0.667987	1.71709	0.901525	0.783093	0.439001	2.27289	0.672667	0.743356
0.694249	2.58892	0.695093	2.58903	0.669694	1.71162	0.902311	0.795175	0.441261	2.26545	0.673415	0.76013
0.691671	2.58863	0.692514	2.5887	0.671396	1.70598	0.903109	0.807325	0.443514	2.25783	0.674181	0.777097
0.689093	2.58829	0.689936	2.58839	0.673093	1.70021	0.903919	0.819553	0.445759	2.24999	0.674963	0.794247
0.686515	2.58789	0.687358	2.58802	0.674783	1.69438	0.904742	0.831907	0.447996	2.24204	0.675763	0.811574
0.683938	2.58751	0.684781	2.58762	0.676468	1.68839	0.905576	0.844324	0.450225	2.2339	0.67658	0.829078
0.681361	2.5871	0.682203	2.58725	0.678147	1.68232	0.906423	0.856772	0.452446	2.22559	0.677414	0.846755
0.678784	2.58663	0.679627	2.58679	0.679819	1.67612	0.907283	0.869365	0.454659	2.2171	0.678267	0.864564
0.676208	2.58612	0.67705	2.58629	0.681486	1.66986	0.908155	0.882075	0.456863	2.20843	0.679137	0.882567
0.673632	2.58563	0.674475	2.58582	0.683146	1.66343	0.90904	0.894799	0.459058	2.19964	0.680025	0.900755
0.671057	2.58516	0.671899	2.5853	0.684799	1.65693	0.909938	0.907574	0.461244	2.19065	0.680931	0.919078
0.668483	2.58456	0.669325	2.58479	0.686446	1.65034	0.910848	0.920462	0.463422	2.18156	0.681856	0.937556
0.665909	2.58398	0.66675	2.5842	0.688087	1.64362	0.911771	0.933405	0.46559	2.17233	0.682799	0.956155
0.663335	2.58342	0.664177	2.58354	0.689721	1.63688	0.912708	0.946376	0.467749	2.16291	0.68376	0.9749
0.660762	2.58273	0.661604	2.58292	0.691348	1.63005	0.913657	0.959448	0.469899	2.15339	0.684741	0.993805
0.65819	2.58204	0.659031	2.58228	0.692968	1.62308	0.914619	0.97257	0.472039	2.14374	0.68574	1.01283
0.655619	2.58137	0.65646	2.58161	0.694581	1.61604	0.915594	0.985761	0.474169	2.13397	0.686758	1.03197
0.653048	2.58063	0.653889	2.58087	0.696187	1.60901	0.916582	0.998986	0.47629	2.12406	0.687796	1.0512
0.650478	2.57983	0.651318	2.58009	0.697786	1.60181	0.917584	1.01223	0.4784	2.11403	0.688852	1.0706
0.647909	2.57902	0.648749	2.57931	0.699378	1.59457	0.918599	1.02552	0.480501	2.10395	0.689929	1.09006
0.645341	2.57818	0.64618	2.57844	0.700962	1.58731	0.919627	1.03888	0.482592	2.0938	0.691024	1.10962
0.642773	2.57729	0.643613	2.57757	0.70254	1.57996	0.920668	1.05224	0.484672	2.08348	0.692139	1.12928
0.640206	2.57637	0.641046	2.57669	0.70411	1.57255	0.921723	1.06563	0.486742	2.07307	0.693273	1.14899
0.637641	2.57538	0.63848	2.57572	0.705672	1.56513	0.922791	1.07905	0.488802	2.06263	0.694428	1.16886
0.635076	2.57438	0.635915	2.57472	0.707228	1.55764	0.923873	1.09247	0.490851	2.05212	0.695602	1.18871
0.632512	2.57331	0.633351	2.57369	0.708775	1.55009	0.924967	1.10598	0.49289	2.04154	0.696796	1.2086
0.62995	2.57222	0.630788	2.57257	0.710315	1.54254	0.926076	1.11941	0.494918	2.03087	0.698009	1.2286
0.627388	2.57109	0.628226	2.57145	0.711848	1.53495	0.927197	1.13284	0.496935	2.02021	0.699243	1.24866
0.624828	2.56986	0.625665	2.57027	0.713373	1.5273	0.928332	1.14636	0.498942	2.00946	0.700497	1.26869
0.622269	2.56861	0.623106	2.56902	0.714891	1.51966	0.929481	1.15984	0.500938	1.99871	0.70177	1.28876
0.619711	2.56732	0.620548	2.56774	0.7164	1.51203	0.930643	1.17325	0.502924	1.98797	0.703064	1.30885
0.617155	2.56595	0.617991	2.5664	0.717903	1.50436	0.931818	1.18667	0.504898	1.97718	0.704378	1.32895
0.6146	2.56453	0.615435	2.56501	0.719397	1.49667	0.933007	1.20014	0.506862	1.96641	0.705711	1.34905
0.612046	2.56306	0.612881	2.56354	0.720884	1.48896	0.934209	1.21355	0.508815	1.95561	0.707065	1.36911
0.609494	2.56151	0.610329	2.56198	0.722363	1.4813	0.935424	1.22688	0.510758	1.94484	0.708439	1.38919
0.606944	2.55988	0.607778	2.56041	0.723835	1.47365	0.936653	1.24022	0.51269	1.93408	0.709832	1.4092
0.604395	2.55818	0.605228	2.55875	0.725299	1.46602	0.937895	1.25352	0.514611	1.92332	0.711246	1.42912
0.601848	2.55644	0.602681	2.557	0.726755	1.45834	0.93915	1.26676	0.516521	1.91266	0.712679	1.44905
0.599302	2.5546	0.600135	2.55523	0.728204	1.45069	0.940418	1.27996	0.518421	1.90204	0.714133	1.46894
0.596759	2.55265	0.59759	2.55333	0.729645	1.44314	0.9417	1.29315	0.52031	1.89145	0.715606	1.48872
0.594217	2.55067	0.595048	2.55134	0.731079	1.43555	0.942994	1.30624	0.522189	1.88095	0.717098	1.50845
0.591678	2.5486	0.592508	2.54928	0.732505	1.42803	0.944302	1.31925	0.524057	1.8705	0.71861	1.52806
0.58914	2.54646	0.58997	2.54716	0.733923	1.42055	0.945622	1.33221	0.525915	1.86012	0.720142	1.54753
0.586605	2.54417	0.587434	2.5449	0.735335	1.41308	0.946956	1.34514	0.527762	1.84986	0.721693	1.56692
0.584072	2.54175	0.5849	2.54255	0.736738	1.4057	0.948302	1.35793	0.5296	1.83971	0.723264	1.58624
0.581542	2.53926	0.582369	2.54011	0.738135	1.39833	0.949661	1.37066	0.531427	1.8296	0.724853	1.60539
0.579014	2.5367	0.57984	2.53756	0.739524	1.39105	0.951032	1.38335	0.533244	1.81961	0.726462	1.62441
0.576489	2.534	0.577314	2.53489	0.740906	1.38385	0.952416	1.39589	0.535052	1.8098	0.728089	1.64328
0.573966	2.53113	0.574791	2.53206	0.742281	1.37666	0.953813	1.40831	0.53685	1.80009	0.729735	1.66199
0.571446	2.52816	0.57227	2.52918	0.743648	1.36955	0.955222	1.42067	0.538638	1.79051	0.7314	1.68053
0.56893	2.52507	0.569753	2.5261	0.745009	1.36258	0.956643	1.43297	0.540416	1.78109	0.733083	1.6989
0.566416	2.52184	0.567238	2.52288	0.746363	1.35562	0.958076	1.44513	0.542186	1.77178	0.734784	1.71714
0.563906	2.51842	0.564727	2.51957	0.747709	1.34872	0.959522	1.45715	0.543946	1.76262	0.736503	1.73514
0.5614	2.51487	0.562219	2.51607	0.749049	1.34194	0.960979	1.46906	0.545697	1.75367	0.73824	1.75294
0.558897	2.51114	0.559715	2.51237	0.750383	1.33525	0.962448	1.4809	0.547439	1.74485	0.739995	1.77055
0.556397	2.50724	0.557214	2.50852	0.751709	1.32866	0.963929	1.49259	0.549173	1.7362	0.741768	1.78797
0.553902	2.50318	0.554718	2.50454	0.753029	1.32215	0.965422	1.50415	0.550898	1.72776	0.743557	1.80518
0.551411	2.49886	0.552225	2.50031	0.754343	1.31574	0.966925	1.51556	0.552615	1.71947	0.745364	1.8221
0.548924	2.49438	0.549737	2.49584	0.75565	1.30941	0.968441	1.52682	0.554323	1.71133	0.747187	1.83884
0.546442	2.48967	0.547253	2.49122	0.756951	1.30322	0.969967	1.53799	0.556024	1.70345	0.749027	1.8554
0.543965	2.48475	0.544774	2.48641	0.758246	1.29713	0.971504	1.54904	0.557716	1.69574	0.750883	1.87165
0.541492	2.47959	0.5423	2.4813	0.759535	1.29109	0.973053	1.55993	0.559402	1.6882	0.752755	1.88762
0.539025	2.47413	0.539831	2.47593	0.760818	1.28522	0.974612	1.57062	0.561079	1.68088	0.754643	1.9034
0.536564	2.46841	0.537368	2.47029	0.762095	1.27946	0.976181	1.58121	0.56275	1.67375	0.756547	1.91897
0.534108	2.46242	0.53491	2.4644	0.763367	1.27377	0.977762	1.59166	0.564414	1.66685	0.758466	1.9342
0.531658	2.45617	0.532459	2.45825	0.764633	1.26823	0.979352	1.60192	0.56607	1.6602	0.7604	1.94918
0.529215	2.44957	0.530013	2.45176	0.765893	1.26282	0.980953	1.61202	0.567721	1.65371	0.762349	1.96395
0.526779	2.44259	0.527575	2.44492	0.767149	1.25752	0.982563	1.62197	0.569365	1.64738	0.764312	1.9784
0.524349	2.43531	0.525143	2.43774	0.768398	1.25235	0.984184	1.6318	0.571003	1.64132	0.76629	1.99256
0.521927	2.42769	0.522719	2.43024	0.769643	1.2473	0.985814	1.64148	0.572634	1.63547	0.768281	2.00648
0.519513	2.41964	0.520302	2.42234	0.770883	1.24235	0.987454	1.65096	0.57426	1.62986	0.770287	2.02012
0.517107	2.41117	0.517893	2.41398	0.772118	1.23753	0.989103	1.66021	0.575881	1.62446	0.772305	2.03344
