Sym0		Asym0		Sym1		Sym2		Sym3		Sym4		Asym1		Asym2		Asym3		Asym4	
458  Points		542  Points		458  Points		407  Points		370  Points		280  Points		481  Points		422  Points		371  Points		280  Points	
Freq (MHz)	Vgr (m/ms)	Freq (MHz)	Vgr (m/ms)	Freq (MHz)	Vgr (m/ms)	Freq (MHz)	Vgr (m/ms)	Freq (MHz)	Vgr (m/ms)	Freq (MHz)	Vgr (m/ms)	Freq (MHz)	Vgr (m/ms)	Freq (MHz)	Vgr (m/ms)	Freq (MHz)	Vgr (m/ms)	Freq (MHz)	Vgr (m/ms)
0.279507	-0.00730983	3.07479e-005	0.103544	0.279507	-0.00691877	0.356464	0.0173143	0.559017	0.00736413	0.838526	0.00403314	0.139755	0.0438912	0.419264	0.0103777	0.69877	-0.0118541	0.712928	0.0178765
0.2795	-0.00994595	0.000127219	0.138725	0.2795	-0.00956513	0.35648	0.0322194	0.559024	0.0118792	0.83853	0.00629144	0.139796	0.0792241	0.419274	0.0148878	0.698759	-0.0179626	0.712945	0.0316825
0.279488	-0.0151444	0.000289247	0.20882	0.279489	-0.0147942	0.356524	0.0619931	0.55904	0.0208833	0.838538	0.0107958	0.139902	0.149774	0.419292	0.0240234	0.698737	-0.0299892	0.712987	0.0591112
0.279472	-0.0202677	0.000516333	0.278331	0.279473	-0.0199058	0.356596	0.0916577	0.559063	0.0298828	0.83855	0.0153368	0.140075	0.219901	0.419319	0.0332128	0.698703	-0.0416644	0.713055	0.0862098
0.27945	-0.0252411	0.000807886	0.347076	0.279452	-0.0248555	0.356695	0.121251	0.559095	0.038873	0.838566	0.0198778	0.140312	0.289403	0.419354	0.0423629	0.698659	-0.0528566	0.713148	0.112868
0.279424	-0.0300608	0.00116307	0.414877	0.279427	-0.0297012	0.356822	0.150774	0.559136	0.0478445	0.838587	0.0244187	0.140614	0.358096	0.419398	0.0515079	0.698605	-0.0633758	0.713265	0.138865
0.279394	-0.0347197	0.00158096	0.481558	0.279397	-0.034412	0.356976	0.180083	0.559184	0.056852	0.838612	0.0289596	0.140979	0.425828	0.41945	0.0606425	0.698541	-0.0732081	0.713407	0.164199
0.27936	-0.0391304	0.0020604	0.547025	0.279362	-0.0388533	0.357157	0.209185	0.559242	0.0658583	0.838641	0.0335003	0.141407	0.492444	0.419511	0.0698299	0.698468	-0.0822526	0.713571	0.188792
0.279321	-0.0433374	0.00260029	0.611089	0.279324	-0.0430484	0.357366	0.238093	0.559307	0.074862	0.838674	0.0380408	0.141897	0.557781	0.41958	0.078976	0.698388	-0.0904539	0.713758	0.21249
0.279279	-0.0472837	0.0031991	0.673591	0.279282	-0.0469707	0.357601	0.266757	0.559381	0.0838607	0.838712	0.0425806	0.142447	0.621732	0.419658	0.088113	0.6983	-0.0977745	0.713967	0.235351
0.279233	-0.0509283	0.00385545	0.734582	0.279237	-0.0506406	0.357863	0.295155	0.559463	0.0928492	0.838753	0.0471192	0.143056	0.684155	0.419744	0.0973049	0.698205	-0.104213	0.714197	0.257342
0.279184	-0.0542624	0.00456791	0.793868	0.279188	-0.0540253	0.358151	0.323241	0.559554	0.101818	0.838799	0.0516555	0.143722	0.744913	0.419839	0.10646	0.698105	-0.109765	0.714447	0.278399
0.279132	-0.0572685	0.00533473	0.851356	0.279136	-0.0570592	0.358465	0.350995	0.559653	0.110819	0.83885	0.0561871	0.144444	0.804027	0.419943	0.115616	0.698001	-0.114423	0.714716	0.298614
0.279077	-0.0599114	0.00615432	0.90708	0.279081	-0.0597581	0.358805	0.37845	0.559761	0.119812	0.838904	0.0607092	0.14522	0.861391	0.420055	0.124771	0.697892	-0.118247	0.715003	0.31795
0.27902	-0.0621945	0.00702498	0.960958	0.279025	-0.0620795	0.35917	0.405528	0.559876	0.12879	0.838963	0.0652857	0.146049	0.916866	0.420175	0.133927	0.69778	-0.121281	0.715308	0.336406
0.278962	-0.0641238	0.00794496	1.01298	0.278966	-0.0640125	0.35956	0.432219	0.560001	0.137811	0.839026	0.0698245	0.146928	0.970541	0.420304	0.143084	0.697666	-0.123541	0.71563	0.35413
0.278901	-0.0656388	0.00891255	1.06311	0.278905	-0.0655347	0.359976	0.458574	0.560133	0.146771	0.839093	0.0743609	0.147857	1.02237	0.420442	0.152242	0.69755	-0.125057	0.715968	0.37112
0.278839	-0.0667643	0.00992595	1.11138	0.278844	-0.0666749	0.360415	0.484477	0.560274	0.155754	0.839164	0.0788928	0.148833	1.07228	0.420588	0.161403	0.697433	-0.125892	0.716322	0.387375
0.278777	-0.0674774	0.0109835	1.15781	0.278781	-0.0674171	0.360878	0.509989	0.560423	0.164785	0.83924	0.0834155	0.149855	1.1203	0.420743	0.17057	0.697316	-0.126097	0.71669	0.402967
0.278713	-0.0677317	0.0120834	1.20234	0.278718	-0.0677296	0.361365	0.535087	0.560581	0.173765	0.83932	0.0879932	0.150921	1.16655	0.420906	0.179748	0.697198	-0.125701	0.717072	0.417965
0.27865	-0.0675811	0.0132239	1.24511	0.278655	-0.0676223	0.361875	0.559721	0.560747	0.182717	0.839404	0.0925342	0.151884	1.20538	0.421078	0.188876	0.697081	-0.124762	0.717469	0.43236
0.278588	-0.0669869	0.0144035	1.28611	0.278592	-0.0670413	0.362408	0.583939	0.560922	0.191685	0.839492	0.0970754	0.15273	1.23742	0.421258	0.19805	0.696966	-0.123325	0.717878	0.446208
0.278526	-0.065945	0.0156204	1.32534	0.27853	-0.0660259	0.362963	0.607693	0.561104	0.200685	0.839585	0.101617	0.153445	1.26311	0.421447	0.207243	0.696852	-0.121402	0.7183	0.459549
0.278465	-0.064447	0.0168732	1.36293	0.278469	-0.0645811	0.363541	0.631031	0.561296	0.209678	0.839681	0.106158	0.154021	1.28298	0.421644	0.216399	0.69674	-0.119021	0.718734	0.472461
0.278405	-0.0625499	0.0181601	1.39886	0.27841	-0.0627168	0.364139	0.653904	0.561495	0.218653	0.839783	0.1107	0.154451	1.29723	0.42185	0.225557	0.69663	-0.116236	0.719181	0.484956
0.278348	-0.0602204	0.0194798	1.43322	0.278352	-0.0603798	0.364759	0.676285	0.561703	0.227668	0.839888	0.115243	0.154728	1.30625	0.422064	0.234718	0.696523	-0.113157	0.719638	0.497055
0.278293	-0.0573924	0.0208308	1.46604	0.278297	-0.05761	0.3654	0.698269	0.561919	0.236616	0.839997	0.119788	0.15513	1.3192	0.422287	0.243883	0.696419	-0.109709	0.720107	0.508802
0.278241	-0.0541534	0.0222116	1.49741	0.278245	-0.0544143	0.36606	0.719825	0.562144	0.245577	0.840111	0.124337	0.155571	1.33294	0.422519	0.253059	0.696319	-0.105889	0.720586	0.52021
0.278192	-0.0504587	0.023621	1.52734	0.278196	-0.0507329	0.366741	0.74089	0.562377	0.254564	0.840229	0.128895	0.156179	1.35124	0.422759	0.262256	0.696222	-0.101837	0.721076	0.531307
0.278147	-0.0463652	0.0250576	1.55593	0.27815	-0.0466659	0.367441	0.761488	0.562618	0.263528	0.840351	0.133468	0.156958	1.37387	0.423007	0.271421	0.696129	-0.0975432	0.721576	0.542077
0.278106	-0.0418403	0.0265203	1.58321	0.278109	-0.0421941	0.36816	0.781662	0.562868	0.272522	0.840478	0.138	0.157919	1.40039	0.423264	0.280596	0.69604	-0.0929833	0.722086	0.55263
0.278069	-0.036892	0.0280078	1.60922	0.278072	-0.0372787	0.368897	0.801431	0.563126	0.281499	0.840608	0.142524	0.159068	1.43043	0.42353	0.28979	0.695956	-0.0881849	0.722606	0.562969
0.278037	-0.0315365	0.0295189	1.63406	0.278039	-0.0319158	0.369653	0.820753	0.563393	0.290445	0.840743	0.147105	0.160417	1.46347	0.423804	0.29895	0.695876	-0.0832023	0.723135	0.573026
0.27801	-0.0257326	0.0310527	1.65775	0.278012	-0.0261704	0.370427	0.839622	0.563667	0.299402	0.840882	0.15165	0.161795	1.49503	0.424087	0.308114	0.6958	-0.078071	0.723674	0.582887
0.277989	-0.0195449	0.032608	1.68037	0.277991	-0.0200263	0.371218	0.858096	0.56395	0.30838	0.841026	0.156201	0.163202	1.52521	0.424379	0.317288	0.69573	-0.0727158	0.724221	0.592575
0.277974	-0.0129555	0.0341838	1.70194	0.277975	-0.0134509	0.372026	0.876149	0.564242	0.317328	0.841173	0.160762	0.164637	1.55399	0.424678	0.326481	0.695665	-0.0672054	0.724778	0.602064
0.277965	-0.00600234	0.0357793	1.72253	0.277966	-0.0074727	0.37285	0.893798	0.564542	0.326288	0.841325	0.165343	0.166098	1.58146	0.424987	0.33571	0.695605	-0.0616047	0.725343	0.611373
0.277963	0.0013122	0.0373936	1.74219	0.277963	-0.00212044	0.373691	0.911078	0.56485	0.335272	0.841482	0.16989	0.167584	1.60768	0.425304	0.344867	0.69555	-0.0558231	0.725917	0.620543
0.277968	0.00905651	0.0390257	1.76091	0.277963	0.00251705	0.374548	0.927914	0.565166	0.344232	0.841642	0.174443	0.169094	1.63266	0.42563	0.354026	0.695501	-0.0498997	0.7265	0.629581
0.27798	0.0171477	0.0406748	1.77879	0.277965	0.00619111	0.37542	0.944374	0.565491	0.353143	0.841807	0.179008	0.170626	1.6565	0.425964	0.363261	0.695457	-0.0439121	0.72709	0.638428
0.277999	0.0255663	0.0423403	1.79589	0.277968	0.00905041	0.376308	0.960447	0.565825	0.362102	0.841976	0.183524	0.172181	1.67926	0.426306	0.372431	0.695419	-0.0377964	0.727689	0.647187
0.278027	0.034347	0.0440213	1.81221	0.27797	0.0108767	0.37721	0.976188	0.566166	0.371085	0.842149	0.188089	0.173755	1.70093	0.426658	0.381615	0.695387	-0.0315708	0.728296	0.655842
0.278063	0.0434854	0.0457171	1.82778	0.277973	0.0134119	0.378127	0.991555	0.566516	0.380042	0.842326	0.192677	0.17535	1.72161	0.427018	0.390827	0.69536	-0.025272	0.728911	0.664364
0.278108	0.0529733	0.0474272	1.84267	0.277978	0.0163529	0.379058	1.00654	0.566874	0.388947	0.842508	0.197239	0.176963	1.74137	0.427386	0.400022	0.69534	-0.0189	0.729534	0.672765
0.278162	0.0627205	0.0491507	1.85691	0.277987	0.0204461	0.380002	1.02121	0.567241	0.397895	0.842694	0.201822	0.178595	1.76018	0.427763	0.409259	0.695325	-0.0124548	0.730165	0.681072
0.278225	0.0728399	0.0508873	1.87046	0.278	0.0256383	0.380961	1.03554	0.567616	0.406856	0.842884	0.206374	0.180243	1.77812	0.428149	0.418429	0.695316	-0.00593635	0.730803	0.689261
0.278298	0.0832644	0.0526361	1.88343	0.27802	0.0321373	0.381932	1.04954	0.567999	0.415769	0.843078	0.210936	0.181908	1.79526	0.428543	0.427616	0.695314	0.000655135	0.731449	0.697365
0.27838	0.0939325	0.0543969	1.89588	0.278049	0.0400714	0.382916	1.06319	0.56839	0.424732	0.843277	0.215519	0.183589	1.81159	0.428945	0.436832	0.695318	0.00731955	0.732103	0.705442
0.278473	0.104942	0.0561689	1.90774	0.278091	0.0493914	0.383913	1.07656	0.56879	0.43365	0.84348	0.220071	0.185284	1.82715	0.429357	0.446038	0.695328	0.0140566	0.732764	0.713392
0.278576	0.116267	0.0579517	1.91909	0.278141	0.0590319	0.384922	1.08962	0.569198	0.44255	0.843687	0.224634	0.186993	1.84204	0.429777	0.455293	0.695344	0.0207924	0.733432	0.721237
0.27869	0.127857	0.0597449	1.92993	0.278201	0.0690524	0.385943	1.10234	0.569615	0.451488	0.843898	0.229219	0.188716	1.85626	0.430205	0.464503	0.695366	0.027599	0.734108	0.729016
0.278814	0.139685	0.0615479	1.94033	0.27827	0.079336	0.386843	1.11322	0.57004	0.460429	0.844114	0.233774	0.190452	1.86977	0.430642	0.473692	0.695395	0.0344738	0.734791	0.736738
0.27895	0.151769	0.0633605	1.95029	0.278348	0.0899344	0.387617	1.12236	0.570473	0.469375	0.844334	0.238345	0.1922	1.88272	0.431088	0.482917	0.695431	0.0413388	0.735481	0.744417
0.279097	0.164144	0.0651821	1.9598	0.278437	0.100837	0.388261	1.12973	0.570914	0.478257	0.844558	0.242944	0.193961	1.89509	0.431542	0.492138	0.695472	0.0482572	0.736178	0.752012
0.279256	0.176811	0.0670124	1.96894	0.278536	0.112001	0.388774	1.1355	0.571364	0.48716	0.844787	0.24753	0.195732	1.90684	0.432005	0.501351	0.695521	0.0552092	0.736882	0.759512
0.279426	0.189692	0.068851	1.97769	0.278646	0.123479	0.389152	1.13973	0.571822	0.496103	0.845019	0.252086	0.197514	1.9181	0.432476	0.510621	0.695575	0.0622284	0.737593	0.766967
0.279609	0.202784	0.0706976	1.98605	0.278766	0.13526	0.389395	1.14244	0.572289	0.50498	0.845256	0.256657	0.199306	1.92889	0.432894	0.51866	0.695636	0.0692357	0.738311	0.774406
0.279804	0.216151	0.0725518	1.99405	0.278898	0.147267	0.389746	1.14623	0.572763	0.513872	0.845498	0.261258	0.201108	1.93912	0.433255	0.525492	0.695704	0.0762922	0.739036	0.781741
0.280012	0.229774	0.0744133	2.00176	0.279041	0.159532	0.390128	1.15027	0.573246	0.522795	0.845743	0.265846	0.202919	1.94893	0.433558	0.531186	0.695779	0.0833739	0.739768	0.789014
0.280232	0.243617	0.0762818	2.00914	0.279195	0.172073	0.390649	1.15589	0.573737	0.531704	0.845993	0.270407	0.20474	1.95833	0.433799	0.53572	0.69586	0.0904328	0.740506	0.796234
0.280466	0.257679	0.0781571	2.01621	0.279362	0.184863	0.391313	1.16283	0.574237	0.540586	0.846247	0.274989	0.206568	1.96728	0.433978	0.538972	0.695947	0.0975927	0.741251	0.803425
0.280713	0.271961	0.0800388	2.02301	0.27954	0.197886	0.392121	1.17103	0.574745	0.549488	0.846505	0.279612	0.208405	1.97582	0.434093	0.541053	0.696041	0.104735	0.742003	0.810555
0.280973	0.286463	0.0819268	2.02952	0.27973	0.211135	0.393075	1.18052	0.575261	0.558357	0.846768	0.284169	0.21025	1.98398	0.434259	0.544092	0.696142	0.111841	0.742762	0.817638
0.281246	0.301183	0.0838206	2.03572	0.279933	0.224682	0.39418	1.19123	0.575785	0.567232	0.847035	0.288744	0.212102	1.99179	0.434441	0.547383	0.69625	0.119023	0.743527	0.8247
0.281534	0.316123	0.0857201	2.04174	0.280149	0.23845	0.395295	1.20163	0.576318	0.576121	0.847306	0.293353	0.213962	1.99925	0.434689	0.55189	0.696364	0.126208	0.744298	0.831645
0.281835	0.331281	0.0876252	2.04749	0.280378	0.252401	0.396419	1.21178	0.576859	0.584962	0.847582	0.297956	0.215828	2.00634	0.435007	0.557566	0.696485	0.133401	0.745077	0.838577
0.282151	0.346655	0.0895354	2.05299	0.280619	0.266592	0.397553	1.22176	0.577408	0.593855	0.847861	0.302548	0.2177	2.01319	0.435395	0.564465	0.696613	0.140609	0.745861	0.845482
0.282481	0.362243	0.0914507	2.05835	0.280874	0.281048	0.398696	1.23151	0.577965	0.602707	0.848145	0.307117	0.219579	2.01969	0.435857	0.572532	0.696747	0.147847	0.746652	0.852336
0.282826	0.378037	0.0933709	2.06343	0.281143	0.29571	0.399848	1.241	0.578531	0.611548	0.848434	0.311715	0.221464	2.02587	0.436394	0.581774	0.696888	0.155072	0.747449	0.859159
0.283186	0.394025	0.0952957	2.06832	0.281425	0.310511	0.401008	1.25029	0.579105	0.62044	0.848726	0.316295	0.223354	2.03181	0.436941	0.591046	0.697036	0.162272	0.748253	0.865919
0.28356	0.410254	0.097225	2.07303	0.281722	0.325603	0.402178	1.2594	0.579687	0.629289	0.849023	0.320916	0.22525	2.03746	0.437496	0.600296	0.697191	0.169494	0.749063	0.872629
0.28395	0.426673	0.0991585	2.07755	0.282032	0.340912	0.403355	1.26828	0.580277	0.638124	0.849324	0.325543	0.227151	2.04288	0.438059	0.609535	0.697352	0.176759	0.749879	0.879309
0.284356	0.443322	0.101096	2.0819	0.282357	0.356403	0.404541	1.27693	0.580876	0.646932	0.84963	0.330109	0.229056	2.04805	0.438632	0.618843	0.69752	0.184039	0.750701	0.885932
0.284776	0.460215	0.103038	2.08607	0.282696	0.372133	0.405735	1.28542	0.581483	0.65576	0.849939	0.3347	0.230967	2.05294	0.439213	0.62811	0.697695	0.191275	0.75153	0.892513
0.285213	0.477302	0.104983	2.09007	0.28305	0.388054	0.406936	1.29374	0.582018	0.663492	0.850253	0.339342	0.232882	2.05765	0.439802	0.637359	0.697876	0.198497	0.752364	0.899082
0.285666	0.494629	0.106933	2.09392	0.283419	0.404181	0.408145	1.30185	0.58248	0.670033	0.850572	0.343938	0.234801	2.06213	0.4404	0.64667	0.698065	0.205761	0.753205	0.905629
0.286074	0.509921	0.108885	2.09764	0.283803	0.420558	0.409362	1.30979	0.582865	0.675424	0.850894	0.348516	0.236724	2.06635	0.441007	0.65594	0.69826	0.21304	0.754052	0.912131
0.286431	0.523022	0.110841	2.10121	0.284203	0.437132	0.410586	1.31753	0.583172	0.679831	0.851221	0.35313	0.238652	2.07044	0.441622	0.665226	0.698462	0.220272	0.754905	0.918543
0.286733	0.533986	0.112801	2.10462	0.284618	0.453915	0.411817	1.3251	0.583398	0.682795	0.851552	0.357744	0.240582	2.07431	0.442247	0.674557	0.69867	0.22756	0.755764	0.924922
0.286977	0.542843	0.114763	2.10792	0.285049	0.470913	0.413055	1.33251	0.583544	0.684779	0.851888	0.362359	0.242517	2.07797	0.442879	0.683836	0.698886	0.234811	0.756628	0.931308
0.287159	0.549244	0.116476	2.11071	0.285495	0.488128	0.4143	1.33977	0.583754	0.687861	0.852227	0.366973	0.244455	2.08149	0.443521	0.693127	0.699108	0.242061	0.757499	0.937635
0.287276	0.553285	0.117937	2.11301	0.285958	0.505634	0.415552	1.34688	0.583983	0.690959	0.852571	0.371588	0.246395	2.08482	0.444171	0.70246	0.699337	0.249312	0.758376	0.943917
0.287446	0.559366	0.119147	2.1148	0.286438	0.523323	0.41681	1.3538	0.584297	0.69518	0.85292	0.376203	0.248339	2.08795	0.44483	0.711777	0.699572	0.256561	0.759258	0.950183
0.287634	0.566007	0.120104	2.11633	0.286933	0.541212	0.418074	1.36052	0.584696	0.700608	0.853272	0.380818	0.250286	2.09094	0.445497	0.721086	0.699815	0.263809	0.760146	0.956414
0.287892	0.574911	0.120809	2.1173	0.287446	0.559422	0.419345	1.36714	0.585184	0.707165	0.853629	0.385435	0.252236	2.09379	0.446173	0.730392	0.700064	0.271054	0.76104	0.962578
0.288224	0.586327	0.12126	2.11788	0.287976	0.577866	0.420622	1.37363	0.585761	0.714803	0.853991	0.390055	0.254188	2.09646	0.446858	0.739696	0.70032	0.278294	0.76194	0.968755
0.288635	0.600281	0.121908	2.11887	0.288523	0.596499	0.421905	1.37996	0.586431	0.723617	0.854356	0.394681	0.256142	2.09901	0.447552	0.749035	0.700582	0.285522	0.762845	0.974881
0.289129	0.61688	0.122614	2.11992	0.289087	0.615484	0.423193	1.38616	0.587109	0.732381	0.854726	0.399318	0.258099	2.10142	0.448254	0.758392	0.700817	0.291849	0.763756	0.980909
0.289713	0.636125	0.123573	2.12126	0.28967	0.634717	0.424488	1.39219	0.587796	0.741158	0.8551	0.403905	0.260058	2.10368	0.448965	0.767758	0.701021	0.297197	0.764673	0.986959
0.290314	0.655635	0.124788	2.12285	0.29027	0.654222	0.425787	1.39806	0.58849	0.749941	0.855479	0.408538	0.262019	2.10577	0.449685	0.777092	0.701192	0.30166	0.765595	0.99298
0.290934	0.675461	0.126258	2.12475	0.290889	0.674045	0.427093	1.40385	0.589193	0.758691	0.855862	0.41319	0.263982	2.10776	0.450413	0.78641	0.701329	0.305129	0.766523	0.998943
0.291573	0.695628	0.127984	2.12696	0.291526	0.694137	0.428403	1.40953	0.589904	0.767423	0.856249	0.417806	0.265946	2.10964	0.45115	0.795793	0.701431	0.307687	0.767457	1.00486
0.29223	0.716112	0.129966	2.12944	0.292182	0.71462	0.429719	1.41505	0.590623	0.776184	0.85664	0.422423	0.267913	2.11138	0.451896	0.805172	0.701497	0.309333	0.768396	1.01077
0.292907	0.7369	0.131952	2.13178	0.292858	0.735408	0.43104	1.4204	0.59135	0.784922	0.857036	0.427044	0.269881	2.11302	0.45265	0.814549	0.701592	0.311722	0.76934	1.01665
0.293604	0.758025	0.133939	2.13401	0.293553	0.756496	0.432366	1.42568	0.592086	0.793649	0.857436	0.43167	0.27185	2.11454	0.453414	0.823889	0.701696	0.314342	0.77029	1.02248
0.29432	0.779573	0.135928	2.13619	0.294267	0.777989	0.433697	1.43085	0.592829	0.802371	0.85784	0.436309	0.273821	2.11596	0.454186	0.833282	0.701839	0.317783	0.771122	1.02756
0.295056	0.80148	0.137919	2.1383	0.295002	0.799869	0.435032	1.43585	0.593581	0.811053	0.858249	0.440973	0.275793	2.11721	0.454966	0.842703	0.702022	0.322185	0.771835	1.03184
0.295813	0.82375	0.139913	2.14031	0.295758	0.822125	0.436372	1.4408	0.594341	0.819752	0.858662	0.445614	0.277766	2.11839	0.455756	0.852065	0.702247	0.327565	0.772427	1.03535
0.296591	0.846457	0.141908	2.1422	0.296534	0.844788	0.437717	1.44562	0.595108	0.828459	0.859079	0.450207	0.27974	2.11949	0.456554	0.861433	0.702516	0.333832	0.772896	1.0382
0.29739	0.869566	0.143904	2.14405	0.297332	0.867912	0.439066	1.45027	0.595884	0.837171	0.859501	0.454853	0.281716	2.12048	0.457361	0.870841	0.70283	0.341022	0.773242	1.04024
0.298212	0.893168	0.145903	2.14583	0.298152	0.891486	0.440419	1.4549	0.596668	0.845848	0.859927	0.45953	0.283692	2.12138	0.458177	0.880269	0.703151	0.348206	0.773463	1.04149
0.299055	0.917238	0.147903	2.14752	0.298993	0.915467	0.441777	1.45937	0.597461	0.854471	0.860357	0.464124	0.285669	2.12216	0.459001	0.889708	0.703479	0.35535	0.773782	1.04333
0.299921	0.94176	0.149904	2.14917	0.299857	0.939946	0.443139	1.46373	0.598261	0.86314	0.860792	0.46877	0.287646	2.12281	0.459835	0.899114	0.703813	0.362511	0.77413	1.04539
0.30081	0.966766	0.151908	2.15076	0.300745	0.964966	0.444505	1.46804	0.599069	0.871797	0.861231	0.473449	0.289624	2.12342	0.460677	0.908505	0.704154	0.369681	0.774604	1.04816
0.301722	0.992306	0.153912	2.15226	0.301656	0.99044	0.445874	1.4722	0.599885	0.880409	0.861617	0.47745	0.291603	2.12399	0.461528	0.917961	0.704502	0.376781	0.775205	1.05165
0.302659	1.01837	0.155918	2.1537	0.30259	1.01647	0.447248	1.4763	0.600709	0.889037	0.861948	0.480903	0.293582	2.12438	0.462387	0.927413	0.704857	0.38392	0.775934	1.05585
0.30362	1.04499	0.157925	2.15512	0.30355	1.04307	0.448625	1.48025	0.601542	0.897672	0.862224	0.483754	0.295561	2.12472	0.463256	0.936827	0.705218	0.391042	0.776793	1.06069
0.304606	1.07218	0.159934	2.15641	0.304534	1.07018	0.450006	1.48414	0.602382	0.906274	0.862444	0.486114	0.297541	2.125	0.464133	0.946295	0.705585	0.398118	0.777784	1.06626
0.305618	1.09991	0.161944	2.15768	0.305544	1.0979	0.451391	1.48798	0.60323	0.914823	0.862606	0.48761	0.299521	2.12514	0.465019	0.955752	0.705959	0.405246	0.77878	1.07183
