Sym0		Asym0		Sym1		Sym2		Sym3		Sym4		Asym1		Asym2		Asym3		Asym4	
456  Points		540  Points		455  Points		404  Points		368  Points		278  Points		480  Points		419  Points		368  Points		279  Points	
Freq (MHz)	Vgr (m/ms)	Freq (MHz)	Vgr (m/ms)	Freq (MHz)	Vgr (m/ms)	Freq (MHz)	Vgr (m/ms)	Freq (MHz)	Vgr (m/ms)	Freq (MHz)	Vgr (m/ms)	Freq (MHz)	Vgr (m/ms)	Freq (MHz)	Vgr (m/ms)	Freq (MHz)	Vgr (m/ms)	Freq (MHz)	Vgr (m/ms)
0.279508	-0.00277622	0.000133689	0.178236	0.279507	-0.00670934	0.356611	0.0180116	0.559017	0.00767775	0.838526	0.00418251	0.139755	0.045225	0.419265	0.0107207	0.69877	-0.0115714	0.713222	0.0185661
0.279506	-0.00530411	0.00029975	0.213373	0.279501	-0.00915793	0.356628	0.0328902	0.559025	0.0122516	0.83853	0.00650264	0.139797	0.0808961	0.419275	0.0153435	0.698759	-0.017487	0.713239	0.0321577
0.279499	-0.0103243	0.000531285	0.283334	0.27949	-0.0140867	0.356672	0.0627313	0.55904	0.0214323	0.838538	0.0111193	0.139906	0.152094	0.419293	0.0246708	0.698737	-0.0291546	0.713282	0.0593094
0.279487	-0.0152377	0.000827711	0.35254	0.279474	-0.0189638	0.356745	0.0925307	0.559065	0.030565	0.83855	0.0157382	0.14008	0.222859	0.41932	0.0340237	0.698705	-0.040405	0.71335	0.086147
0.27947	-0.020084	0.0011882	0.42075	0.279455	-0.0236643	0.356845	0.122173	0.559097	0.0396752	0.838567	0.020362	0.140321	0.292978	0.419357	0.0433545	0.698662	-0.0511871	0.713442	0.112503
0.279449	-0.0247962	0.00161173	0.487883	0.27943	-0.0282313	0.356972	0.151723	0.559139	0.0488136	0.838588	0.0249951	0.140626	0.362317	0.419401	0.0527144	0.698609	-0.0613987	0.713559	0.138335
0.279424	-0.0293134	0.00209732	0.553741	0.279402	-0.0326779	0.357127	0.181084	0.559188	0.0579352	0.838614	0.0296472	0.140996	0.430684	0.419455	0.0620592	0.698548	-0.0709087	0.7137	0.163485
0.279395	-0.0336602	0.00264357	0.618146	0.279369	-0.0368834	0.35731	0.210292	0.559246	0.0670962	0.838644	0.0342639	0.141429	0.497837	0.419517	0.0713737	0.698477	-0.0796749	0.713864	0.187858
0.279361	-0.0378128	0.00324917	0.68104	0.279333	-0.0408267	0.357519	0.239263	0.559313	0.076263	0.838678	0.038883	0.141924	0.563734	0.419588	0.0807009	0.698399	-0.0876125	0.71405	0.211481
0.279324	-0.0417236	0.00391261	0.742301	0.279293	-0.0445385	0.357755	0.267981	0.559389	0.0853681	0.838716	0.043507	0.142479	0.628219	0.419667	0.0900537	0.698314	-0.0946986	0.714258	0.234264
0.279284	-0.0453703	0.00463236	0.801834	0.27925	-0.0479339	0.358018	0.296488	0.559472	0.0944963	0.838759	0.0481408	0.143094	0.691124	0.419756	0.0993842	0.698223	-0.100961	0.714487	0.256174
0.27924	-0.0487086	0.00540674	0.859596	0.279204	-0.0510624	0.358308	0.324643	0.559565	0.103671	0.838806	0.0527939	0.143767	0.752409	0.419852	0.108743	0.698126	-0.106381	0.714735	0.277214
0.279193	-0.0517231	0.00623413	0.915576	0.279155	-0.0538771	0.358623	0.352463	0.559666	0.112791	0.838857	0.0574128	0.144496	0.81199	0.419958	0.118087	0.698025	-0.110921	0.715003	0.297396
0.279143	-0.0544561	0.00711281	0.969673	0.279104	-0.0562839	0.358965	0.379977	0.559775	0.121876	0.838913	0.0620362	0.14528	0.869774	0.420073	0.127399	0.697919	-0.114656	0.71529	0.316813
0.279091	-0.0568461	0.00804101	1.02184	0.27905	-0.0583876	0.359331	0.407174	0.559893	0.131037	0.838973	0.0666689	0.146117	0.925651	0.420196	0.136721	0.697811	-0.117585	0.715594	0.335359
0.279037	-0.0588429	0.0090169	1.07211	0.278995	-0.0601046	0.359723	0.433956	0.560019	0.140204	0.839037	0.0713199	0.147005	0.979691	0.420327	0.146064	0.6977	-0.11978	0.715914	0.353115
0.278982	-0.0604194	0.0100388	1.12052	0.278938	-0.0614145	0.36014	0.460346	0.560154	0.149309	0.839106	0.0759345	0.147943	1.03189	0.420468	0.155447	0.697588	-0.121315	0.716252	0.370169
0.278925	-0.0616682	0.0111049	1.16701	0.27888	-0.0623499	0.360581	0.486392	0.560297	0.158438	0.839178	0.0805494	0.148928	1.08215	0.420617	0.164767	0.697474	-0.122113	0.716604	0.386553
0.278867	-0.0624812	0.0122134	1.21166	0.278822	-0.0628291	0.361046	0.511972	0.560449	0.16754	0.839256	0.0852382	0.149959	1.13053	0.420775	0.174103	0.69736	-0.122244	0.716972	0.402254
0.278808	-0.0628621	0.0133626	1.25451	0.278763	-0.0629086	0.361535	0.53713	0.560609	0.176663	0.839337	0.0898551	0.151034	1.17704	0.420941	0.183474	0.697246	-0.121847	0.717354	0.417325
0.27875	-0.0628914	0.014551	1.29554	0.278705	-0.0625549	0.362047	0.561884	0.560778	0.185826	0.839423	0.0944746	0.152006	1.21606	0.421117	0.192768	0.697133	-0.120906	0.717749	0.431866
0.278691	-0.0624374	0.0157767	1.33482	0.278647	-0.0617743	0.362582	0.586197	0.560956	0.194924	0.839513	0.0990993	0.152859	1.24822	0.421301	0.202126	0.697021	-0.119465	0.718158	0.44586
0.278633	-0.0615293	0.0170383	1.37245	0.27859	-0.0605792	0.36314	0.610068	0.561142	0.204037	0.839608	0.103735	0.153581	1.27418	0.421493	0.211469	0.69691	-0.117535	0.71858	0.459346
0.278576	-0.0602258	0.0183342	1.40837	0.278534	-0.0589215	0.363719	0.633494	0.561336	0.213182	0.839707	0.108391	0.154162	1.29407	0.421695	0.220779	0.696802	-0.11514	0.719014	0.472402
0.278521	-0.0584977	0.0196627	1.44272	0.27848	-0.0568512	0.36432	0.656468	0.561539	0.222317	0.83981	0.113016	0.154595	1.3086	0.421905	0.230171	0.696696	-0.1124	0.719461	0.485038
0.278467	-0.0562867	0.0210225	1.47552	0.278428	-0.0543219	0.364942	0.678979	0.56175	0.231432	0.839917	0.117651	0.154875	1.3177	0.422124	0.239507	0.696593	-0.109264	0.719918	0.497272
0.278416	-0.0536225	0.0224121	1.50685	0.278379	-0.0513141	0.365585	0.701076	0.56197	0.240505	0.840029	0.122307	0.15528	1.33049	0.422351	0.248803	0.696492	-0.105774	0.720387	0.509143
0.278368	-0.0505646	0.0238304	1.53677	0.278332	-0.0479353	0.366249	0.722711	0.562198	0.249643	0.840145	0.126933	0.155725	1.34435	0.422587	0.258167	0.696395	-0.102018	0.720867	0.520653
0.278322	-0.0470855	0.0252757	1.56527	0.278289	-0.0441072	0.366932	0.743862	0.562435	0.258765	0.840266	0.131569	0.156338	1.36276	0.422832	0.26752	0.696302	-0.0979485	0.721357	0.53188
0.27828	-0.0431302	0.0267471	1.59252	0.27825	-0.0398202	0.367635	0.76463	0.56268	0.267852	0.84039	0.136228	0.157124	1.38552	0.423086	0.276851	0.696213	-0.0936177	0.721858	0.542837
0.278242	-0.0387352	0.0282432	1.61852	0.278215	-0.0351281	0.368357	0.784927	0.562934	0.276944	0.840519	0.140859	0.158093	1.41215	0.423348	0.286212	0.696128	-0.0890578	0.722369	0.553544
0.278208	-0.0339736	0.029763	1.64329	0.278185	-0.0299919	0.369097	0.804793	0.563197	0.286047	0.840653	0.145505	0.159252	1.44231	0.423619	0.295558	0.696047	-0.0842591	0.72289	0.563972
0.278178	-0.0287716	0.0313053	1.66691	0.278159	-0.0244802	0.369856	0.824236	0.563467	0.29517	0.840791	0.15011	0.160611	1.47552	0.423899	0.304876	0.695971	-0.0792761	0.72342	0.574134
0.278154	-0.0231285	0.0328691	1.68945	0.278139	-0.0185838	0.370633	0.843201	0.563747	0.304261	0.840933	0.15478	0.162001	1.50729	0.424187	0.314209	0.695899	-0.0740709	0.723959	0.584131
0.278135	-0.0171156	0.0344534	1.71095	0.278125	-0.0122108	0.371428	0.861796	0.564034	0.313361	0.841079	0.159431	0.16342	1.5376	0.424484	0.323573	0.695833	-0.0687141	0.724508	0.593944
0.278122	-0.0106563	0.0360573	1.73147	0.278116	-0.00547084	0.372239	0.880016	0.56433	0.32248	0.84123	0.164046	0.164866	1.56649	0.42479	0.332927	0.695771	-0.0632007	0.725066	0.603536
0.278115	-0.0038167	0.0376798	1.75105	0.278114	0.000671064	0.373067	0.897779	0.564635	0.331562	0.841385	0.168735	0.166339	1.59404	0.425105	0.34226	0.695715	-0.0575205	0.725633	0.612979
0.278115	0.00334388	0.0393201	1.76969	0.278117	0.00612846	0.373912	0.91514	0.564948	0.340644	0.841544	0.173353	0.167837	1.62038	0.425428	0.351623	0.695664	-0.0517267	0.726208	0.622271
0.278122	0.0109268	0.0409775	1.7875	0.278121	0.0108372	0.374773	0.932138	0.56527	0.349725	0.841708	0.177975	0.169358	1.64549	0.42576	0.360975	0.695619	-0.0457786	0.726792	0.631406
0.278135	0.0189148	0.042651	1.80452	0.278127	0.0146945	0.375649	0.948703	0.5656	0.358805	0.841876	0.182676	0.170903	1.66943	0.4261	0.370304	0.695579	-0.0397418	0.727385	0.640374
0.278157	0.0272005	0.04434	1.82075	0.278133	0.0175676	0.376541	0.964913	0.565939	0.367884	0.842048	0.187319	0.172469	1.69228	0.42645	0.379661	0.695545	-0.0336009	0.727986	0.649228
0.278186	0.0358617	0.0460437	1.83622	0.278137	0.0193853	0.377447	0.980781	0.566285	0.37696	0.842225	0.191917	0.174056	1.71403	0.426808	0.388999	0.695516	-0.0273248	0.728595	0.658001
0.278224	0.0449077	0.0477616	1.85104	0.278143	0.021991	0.378368	0.996257	0.566641	0.386031	0.842406	0.196573	0.175663	1.73479	0.427175	0.398373	0.695494	-0.0209983	0.729212	0.66661
0.27827	0.0542839	0.0494929	1.86517	0.278151	0.0249841	0.379303	1.01139	0.567005	0.395089	0.842591	0.201269	0.177289	1.75459	0.42755	0.407746	0.695477	-0.0145709	0.729837	0.675114
0.278325	0.0639543	0.0512371	1.87862	0.278163	0.0292074	0.380253	1.0262	0.567377	0.404197	0.842781	0.205901	0.178933	1.77349	0.427934	0.417044	0.695466	-0.00808822	0.73047	0.68348
0.278389	0.0739201	0.0529935	1.89154	0.278181	0.0345485	0.381216	1.04065	0.567758	0.413257	0.842975	0.21055	0.180594	1.79151	0.428327	0.426412	0.695462	-0.00149485	0.73111	0.691787
0.278462	0.084257	0.0547618	1.90391	0.278207	0.0411762	0.382192	1.05477	0.568147	0.422295	0.843173	0.215235	0.182271	1.80869	0.428729	0.435772	0.695464	0.00517334	0.731759	0.700053
0.278546	0.0948965	0.0565413	1.91567	0.278244	0.049231	0.383181	1.06858	0.568545	0.431362	0.843376	0.219843	0.183964	1.82512	0.429139	0.445117	0.695472	0.0118447	0.732415	0.708162
0.278639	0.105848	0.0583314	1.9269	0.278294	0.0587303	0.384183	1.08205	0.568951	0.440415	0.843583	0.224519	0.185672	1.84076	0.429558	0.454506	0.695486	0.0185956	0.733078	0.716177
0.278743	0.117059	0.0601318	1.9377	0.278353	0.0685336	0.385197	1.09524	0.569366	0.44944	0.843794	0.229183	0.187394	1.85569	0.429986	0.463837	0.695506	0.0254323	0.733749	0.724151
0.278857	0.128567	0.0619421	1.94803	0.278422	0.0787087	0.386224	1.10813	0.569788	0.458479	0.84401	0.233823	0.18913	1.86993	0.430423	0.473195	0.695533	0.0322943	0.734428	0.73204
0.278983	0.140376	0.0637618	1.95786	0.2785	0.0891796	0.387128	1.11913	0.57022	0.467549	0.84423	0.23849	0.190878	1.88353	0.430868	0.482537	0.695566	0.0392067	0.735113	0.739836
0.279119	0.152423	0.0655904	1.96732	0.278588	0.0999448	0.387906	1.12832	0.57066	0.476607	0.844454	0.243135	0.192639	1.89652	0.431322	0.49192	0.695606	0.0461467	0.735806	0.747591
0.279267	0.164724	0.0674277	1.97636	0.278686	0.111004	0.388554	1.13572	0.571108	0.485641	0.844683	0.247812	0.194412	1.90891	0.431785	0.501309	0.695652	0.0531421	0.736507	0.755265
0.279426	0.177314	0.0692731	1.98499	0.278795	0.122356	0.389069	1.14166	0.571565	0.494628	0.844916	0.252479	0.196196	1.92078	0.432256	0.510641	0.695705	0.0601747	0.737214	0.762848
0.279597	0.190191	0.0711265	1.99331	0.278914	0.134001	0.38945	1.14594	0.57203	0.503665	0.845153	0.257125	0.197991	1.93207	0.432736	0.520001	0.695765	0.0672088	0.737928	0.770396
0.27978	0.203273	0.0729874	2.00124	0.279045	0.14594	0.389694	1.14858	0.572503	0.512731	0.845395	0.261803	0.199797	1.94287	0.433162	0.528139	0.69583	0.0743189	0.738649	0.777877
0.279976	0.21662	0.0748556	2.00883	0.279186	0.158134	0.390046	1.1524	0.572985	0.521707	0.845641	0.26647	0.201612	1.95322	0.43353	0.535119	0.695903	0.0814347	0.739378	0.785294
0.280184	0.230204	0.0767306	2.01616	0.279339	0.170567	0.39043	1.15656	0.573475	0.530724	0.845892	0.271118	0.203436	1.96304	0.433837	0.540905	0.695982	0.0885617	0.740113	0.792657
0.280405	0.244042	0.0786124	2.02314	0.279504	0.183266	0.390955	1.16223	0.573974	0.53975	0.846146	0.2758	0.20527	1.97246	0.434083	0.545408	0.696068	0.0957112	0.740855	0.799985
0.280639	0.258095	0.0805005	2.02984	0.279681	0.196243	0.391622	1.16924	0.574481	0.548718	0.846406	0.280475	0.207112	1.98145	0.434265	0.548794	0.696161	0.102906	0.741603	0.807244
0.280886	0.272357	0.0823948	2.03628	0.27987	0.20947	0.392434	1.17758	0.574997	0.55772	0.846669	0.285139	0.208962	1.99005	0.434382	0.550935	0.69626	0.110117	0.742359	0.814438
0.281146	0.286892	0.0842949	2.04243	0.280071	0.222895	0.393394	1.18716	0.57552	0.566714	0.846937	0.289779	0.21082	1.99827	0.434552	0.554024	0.696366	0.117362	0.743121	0.821576
0.28142	0.301608	0.0862007	2.04836	0.280285	0.236602	0.394506	1.19796	0.576053	0.575695	0.847209	0.294444	0.212685	2.00611	0.434736	0.557397	0.696478	0.1246	0.74389	0.828673
0.281708	0.316537	0.0881118	2.05399	0.280512	0.250524	0.395627	1.20852	0.576593	0.584719	0.847485	0.299161	0.214558	2.01358	0.43499	0.561901	0.696598	0.131827	0.744665	0.835762
0.28201	0.331746	0.0900281	2.05947	0.280752	0.264699	0.396757	1.21878	0.577142	0.593687	0.847766	0.303834	0.216438	2.02076	0.435313	0.567663	0.696724	0.139102	0.745447	0.842763
0.282326	0.34715	0.0919494	2.06471	0.281005	0.279074	0.397898	1.22889	0.577699	0.602614	0.848052	0.308491	0.218324	2.02765	0.435708	0.574599	0.696857	0.146401	0.746235	0.849734
0.282657	0.362723	0.0938754	2.0697	0.281272	0.293696	0.399047	1.23878	0.578265	0.611605	0.848341	0.313192	0.220216	2.03417	0.436178	0.582801	0.696997	0.153675	0.74703	0.856646
0.283002	0.378562	0.0958061	2.07456	0.281552	0.308551	0.400206	1.24841	0.578839	0.620579	0.848635	0.317833	0.222114	2.04043	0.436725	0.592199	0.697143	0.160971	0.747832	0.86351
0.283362	0.394639	0.0977411	2.07921	0.281847	0.323595	0.401374	1.2578	0.579421	0.629518	0.848934	0.3225	0.224018	2.04638	0.437282	0.601549	0.697297	0.168313	0.748639	0.870354
0.283738	0.410899	0.0996804	2.08361	0.282155	0.338881	0.40255	1.267	0.580012	0.63846	0.849236	0.32722	0.225927	2.05207	0.437846	0.610912	0.697457	0.1756	0.749454	0.877157
0.284128	0.42738	0.101624	2.08788	0.282478	0.354361	0.403735	1.27604	0.580611	0.647409	0.849543	0.3319	0.227842	2.05755	0.43842	0.620317	0.697624	0.182922	0.750274	0.883878
0.284534	0.444082	0.103571	2.09201	0.282816	0.370048	0.404928	1.28484	0.581218	0.656371	0.849855	0.336571	0.229761	2.06274	0.439002	0.629707	0.697798	0.190243	0.751101	0.890581
0.284956	0.461007	0.105522	2.09595	0.283168	0.385984	0.406129	1.29345	0.581834	0.665287	0.85017	0.341228	0.231685	2.06768	0.439593	0.639126	0.697979	0.197561	0.751933	0.897251
0.285393	0.478157	0.107477	2.09974	0.283535	0.402156	0.407338	1.30189	0.582377	0.673049	0.85049	0.345926	0.233614	2.07242	0.440193	0.648487	0.698166	0.204944	0.752772	0.903851
0.285847	0.495538	0.109435	2.10336	0.283917	0.418518	0.408555	1.31014	0.582846	0.6797	0.850815	0.350634	0.235547	2.07695	0.440802	0.657855	0.69836	0.212241	0.753618	0.91046
0.286316	0.513161	0.111396	2.10686	0.284315	0.435122	0.409779	1.31819	0.583236	0.685182	0.851144	0.35529	0.237484	2.08123	0.441419	0.667299	0.698562	0.219584	0.754469	0.917013
0.286739	0.528705	0.11336	2.11021	0.284728	0.45192	0.411011	1.32605	0.583547	0.689452	0.851477	0.359988	0.239425	2.08535	0.442045	0.676709	0.69877	0.226945	0.755326	0.923527
0.28711	0.542118	0.115075	2.11307	0.285157	0.468961	0.41225	1.33372	0.583777	0.692701	0.851815	0.364697	0.24137	2.08928	0.44268	0.686101	0.698984	0.234271	0.75619	0.929962
0.287423	0.553332	0.116538	2.11541	0.285602	0.486235	0.413496	1.34126	0.583925	0.69477	0.852157	0.369353	0.243318	2.09296	0.443324	0.695485	0.699206	0.241597	0.757059	0.936388
0.287676	0.562266	0.117749	2.11722	0.286063	0.503697	0.414749	1.34865	0.584138	0.697592	0.852503	0.374051	0.24527	2.09649	0.443976	0.704864	0.699435	0.248926	0.757935	0.942795
0.287864	0.568831	0.118708	2.11875	0.286541	0.521473	0.416009	1.35586	0.584371	0.700766	0.852854	0.37876	0.247225	2.09986	0.444637	0.714315	0.69967	0.256259	0.758816	0.949164
0.287986	0.57298	0.119413	2.11977	0.287035	0.539444	0.417276	1.36291	0.584689	0.705118	0.853209	0.383418	0.249183	2.10305	0.445307	0.723728	0.699912	0.2636	0.759703	0.955456
0.288162	0.579137	0.119865	2.12045	0.287546	0.557657	0.418549	1.3698	0.585094	0.710562	0.853568	0.388119	0.251144	2.10607	0.445986	0.733121	0.700161	0.270959	0.760596	0.961741
0.288356	0.585855	0.120514	2.12138	0.288074	0.576139	0.419828	1.37651	0.585588	0.717206	0.853932	0.392834	0.253107	2.10898	0.446673	0.742579	0.700417	0.27828	0.761496	0.968012
0.288623	0.594943	0.12122	2.12235	0.288619	0.594865	0.421114	1.38308	0.586173	0.724952	0.8543	0.397502	0.255074	2.11171	0.447369	0.751995	0.70068	0.285597	0.7624	0.974182
0.288967	0.606675	0.122181	2.12375	0.289182	0.613933	0.422406	1.38956	0.586853	0.733788	0.854673	0.402224	0.257042	2.11425	0.448074	0.761428	0.700949	0.292907	0.763311	0.980369
0.289392	0.620858	0.123397	2.1254	0.289763	0.633244	0.423703	1.39587	0.587541	0.742637	0.85505	0.406909	0.259013	2.11665	0.448788	0.770831	0.70119	0.299249	0.764227	0.986518
0.289902	0.637773	0.124868	2.12737	0.290362	0.652788	0.425007	1.40203	0.588237	0.751529	0.855431	0.411589	0.260986	2.11895	0.449511	0.780257	0.701399	0.3047	0.765149	0.992591
0.290506	0.657466	0.126597	2.1296	0.29098	0.672703	0.426316	1.40804	0.588941	0.760407	0.855817	0.416337	0.262962	2.12117	0.450242	0.789731	0.701574	0.30922	0.766077	0.998658
0.291128	0.677457	0.128582	2.13209	0.291616	0.692915	0.42763	1.41394	0.589654	0.76924	0.856207	0.420997	0.264939	2.12319	0.450982	0.799155	0.701715	0.312742	0.76701	1.00471
0.291768	0.697706	0.130569	2.13444	0.292271	0.713458	0.42895	1.4197	0.590375	0.778051	0.856601	0.425704	0.266918	2.12504	0.451731	0.808628	0.70182	0.3152	0.767949	1.01067
0.292428	0.718304	0.132559	2.13674	0.292945	0.73435	0.430276	1.42534	0.591104	0.786888	0.857	0.430431	0.268899	2.12685	0.452489	0.818089	0.701887	0.31692	0.768893	1.01665
0.293107	0.739297	0.134551	2.13896	0.293639	0.755562	0.431606	1.43082	0.591841	0.795701	0.857403	0.435123	0.270881	2.12852	0.453256	0.827507	0.701984	0.31947	0.769843	1.0226
0.293805	0.760633	0.136545	2.14106	0.294353	0.777191	0.432942	1.43621	0.592586	0.804502	0.857811	0.43982	0.272865	2.13005	0.454031	0.83694	0.702091	0.322037	0.770799	1.02843
0.294524	0.782324	0.138541	2.14306	0.295087	0.799139	0.434283	1.4415	0.59334	0.813297	0.858223	0.444527	0.27485	2.13147	0.454815	0.846417	0.702238	0.325559	0.771636	1.03359
0.295263	0.804375	0.140538	2.14501	0.295842	0.821538	0.435628	1.44663	0.594102	0.822089	0.858639	0.449253	0.276837	2.13281	0.455608	0.855916	0.702425	0.330011	0.772353	1.03796
0.296023	0.826863	0.142538	2.1469	0.296618	0.844383	0.436978	1.45165	0.594872	0.830879	0.85906	0.453944	0.278825	2.13403	0.45641	0.86539	0.702655	0.335421	0.772948	1.04149
0.296804	0.84979	0.144539	2.14869	0.297416	0.867598	0.438333	1.45658	0.59565	0.839632	0.859485	0.458638	0.280813	2.13515	0.457221	0.874851	0.70293	0.34174	0.77342	1.04429
0.297606	0.873155	0.146541	2.15039	0.298235	0.89129	0.439692	1.46139	0.596436	0.848367	0.859914	0.463339	0.282803	2.13615	0.45804	0.884306	0.703252	0.349037	0.773768	1.04637
0.298431	0.896959	0.148546	2.15204	0.299077	0.915478	0.441056	1.4661	0.597231	0.857129	0.860348	0.468053	0.284794	2.13705	0.458869	0.893794	0.703581	0.35631	0.77399	1.04763
0.299278	0.921239	0.150552	2.1536	0.299941	0.940169	0.442424	1.47069	0.598033	0.865867	0.860787	0.472795	0.286785	2.1379	0.459706	0.903299	0.703916	0.363536	0.774311	1.04949
0.300147	0.946013	0.152559	2.15512	0.300828	0.965332	0.443797	1.47518	0.598844	0.874595	0.861229	0.477517	0.288778	2.13859	0.460552	0.912812	0.704258	0.370774	0.774661	1.05161
0.30104	0.971291	0.154567	2.15661	0.30174	0.990987	0.445173	1.47959	0.599663	0.883316	0.861676	0.4822	0.29077	2.13922	0.461407	0.922292	0.704607	0.378019	0.775138	1.0544
0.301957	0.997113	0.156577	2.15797	0.302675	1.01722	0.446554	1.48388	0.60049	0.891998	0.86207	0.486274	0.292764	2.1398	0.46227	0.931793	0.704963	0.38523	0.775742	1.05795
0.302898	1.0235	0.158589	2.15932	0.303635	1.04403	0.447938	1.48804	0.601325	0.900697	0.862407	0.489774	0.294758	2.14023	0.463143	0.941305	0.705325	0.392461	0.776476	1.06213
0.303864	1.05043	0.160601	2.16061	0.30462	1.07139	0.449326	1.49213	0.602169	0.909368	0.862688	0.492727	0.296752	2.14059	0.464024	0.950785	0.705694	0.399665	0.77734	1.06705
0.304856	1.07788	0.162615	2.16181	0.305632	1.09931	0.450719	1.49616	0.60302	0.918025	0.862912	0.495003	0.298746	2.14088	0.464915	0.960322	0.70607	0.40682	0.778337	1.07272
0.305873	1.10596	0.164629	2.16299	0.306669	1.12785	0.452114	1.50007	0.603879	0.926674	0.863077	0.496783	0.300741	2.14107	0.465814	0.969851	0.706452	0.414022	0.779339	1.0783
