Sym0		Asym0		Sym1		Sym2		Sym3		Sym4		Asym1		Asym2		Asym3		Asym4	
456  Points		540  Points		457  Points		406  Points		369  Points		280  Points		480  Points		421  Points		370  Points		279  Points	
Freq (MHz)	Vgr (m/ms)	Freq (MHz)	Vgr (m/ms)	Freq (MHz)	Vgr (m/ms)	Freq (MHz)	Vgr (m/ms)	Freq (MHz)	Vgr (m/ms)	Freq (MHz)	Vgr (m/ms)	Freq (MHz)	Vgr (m/ms)	Freq (MHz)	Vgr (m/ms)	Freq (MHz)	Vgr (m/ms)	Freq (MHz)	Vgr (m/ms)
0.279506	-0.00753899	0.000221524	0.218282	0.279507	-0.00686087	0.356519	0.0175361	0.559017	0.00750768	0.838526	0.00407653	0.139755	0.0443614	0.419264	0.0104649	0.69877	-0.0117409	0.713038	0.0181888
0.279499	-0.0100943	0.000424896	0.253104	0.2795	-0.00941078	0.356535	0.0324761	0.559024	0.0120398	0.83853	0.00633499	0.139796	0.07988	0.419274	0.0150693	0.698759	-0.0177766	0.713055	0.0319016
0.279487	-0.0151968	0.000693154	0.322338	0.279489	-0.014497	0.356579	0.0622814	0.55904	0.0210953	0.838538	0.0109131	0.139904	0.150693	0.419293	0.0242684	0.698737	-0.0296583	0.713097	0.0591972
0.279471	-0.0202015	0.00102554	0.390713	0.279473	-0.0195426	0.356651	0.0920094	0.559064	0.0301241	0.83855	0.0155284	0.140077	0.221056	0.419319	0.0335113	0.698704	-0.0411902	0.713165	0.086176
0.27945	-0.0250839	0.00142121	0.45803	0.279453	-0.0244336	0.356751	0.121656	0.559096	0.039173	0.838567	0.0200713	0.140316	0.290809	0.419355	0.0427686	0.69866	-0.0522422	0.713258	0.112741
0.279424	-0.0297952	0.00187903	0.52411	0.279428	-0.0291618	0.356878	0.151139	0.559137	0.048262	0.838587	0.0246163	0.140619	0.359709	0.419399	0.0519814	0.698606	-0.0626275	0.713375	0.138698
0.279394	-0.0343105	0.00239783	0.588887	0.279399	-0.033711	0.357033	0.180442	0.559186	0.0572846	0.838612	0.0292384	0.140986	0.427709	0.419452	0.0611785	0.698543	-0.0723386	0.713516	0.163953
0.27936	-0.0386535	0.00297635	0.652157	0.279365	-0.0380486	0.357214	0.209604	0.559244	0.0663212	0.838642	0.0337951	0.141416	0.49457	0.419513	0.0704175	0.698472	-0.0812871	0.713681	0.188461
0.279322	-0.0427253	0.00361305	0.713877	0.279328	-0.0421828	0.357423	0.238559	0.55931	0.0753856	0.838675	0.0383676	0.141907	0.560102	0.419583	0.0796669	0.698392	-0.0893697	0.713868	0.212135
0.279281	-0.0465476	0.00430659	0.773964	0.279287	-0.0460567	0.357659	0.267245	0.559384	0.0844322	0.838713	0.0429714	0.142459	0.624224	0.419662	0.088864	0.698305	-0.0965994	0.714076	0.234946
0.279236	-0.0500907	0.00505525	0.832246	0.279242	-0.0496298	0.357921	0.295686	0.559467	0.0935168	0.838755	0.0474916	0.143071	0.686842	0.419749	0.0981029	0.698212	-0.103002	0.714305	0.256912
0.279187	-0.0532951	0.00585738	0.888753	0.279194	-0.052894	0.35821	0.323783	0.559558	0.102531	0.838802	0.0520643	0.143739	0.747845	0.419844	0.107352	0.698113	-0.108483	0.714555	0.277993
0.279136	-0.0561882	0.00671134	0.943466	0.279143	-0.0558336	0.358524	0.351561	0.559658	0.111549	0.838852	0.0566686	0.144464	0.807083	0.419949	0.116549	0.69801	-0.113073	0.714823	0.298182
0.279083	-0.0587518	0.00761543	0.996276	0.27909	-0.0584169	0.358865	0.379065	0.559766	0.120652	0.838907	0.061263	0.145243	0.864621	0.420062	0.125787	0.697902	-0.116907	0.71511	0.31754
0.279027	-0.0609493	0.00856779	1.04718	0.279034	-0.0606538	0.359231	0.406167	0.559883	0.129701	0.838967	0.0658374	0.146075	0.920298	0.420183	0.135035	0.697792	-0.119887	0.715415	0.33604
0.278969	-0.0627076	0.00956674	1.09626	0.278977	-0.0624909	0.359622	0.432905	0.560008	0.138717	0.83903	0.070372	0.146958	0.974082	0.420313	0.144228	0.697679	-0.122111	0.715737	0.353777
0.27891	-0.0641	0.0106106	1.14345	0.278918	-0.0639677	0.360037	0.459282	0.560141	0.14774	0.839098	0.0749735	0.14789	1.02606	0.420452	0.153461	0.697564	-0.12363	0.716074	0.370794
0.27885	-0.0651272	0.0116974	1.18874	0.278858	-0.0650172	0.360478	0.485228	0.560283	0.156778	0.83917	0.0795622	0.14887	1.07611	0.420599	0.162697	0.697449	-0.124471	0.716428	0.387104
0.278789	-0.0657166	0.0128256	1.23223	0.278797	-0.0656513	0.360942	0.510755	0.560433	0.165844	0.839246	0.0841254	0.149896	1.12429	0.420755	0.17194	0.697332	-0.124688	0.716796	0.402732
0.278727	-0.0658701	0.0139936	1.27396	0.278735	-0.065894	0.361429	0.53588	0.560592	0.174896	0.839327	0.0887107	0.150965	1.17061	0.42092	0.181198	0.697216	-0.124243	0.717178	0.417729
0.278666	-0.0655911	0.0151995	1.3139	0.278674	-0.0656471	0.36194	0.560569	0.560759	0.183916	0.839411	0.093267	0.151932	1.2095	0.421093	0.190413	0.697101	-0.123279	0.717574	0.432194
0.278605	-0.0648866	0.0164419	1.35211	0.278613	-0.0650068	0.362474	0.584825	0.560935	0.192948	0.8395	0.0978387	0.15278	1.24164	0.421274	0.199613	0.696987	-0.121864	0.717983	0.44611
0.278545	-0.0637706	0.017719	1.38868	0.278553	-0.0639459	0.36303	0.608655	0.561119	0.202004	0.839594	0.102441	0.153498	1.26734	0.421465	0.208859	0.696874	-0.119913	0.718405	0.459514
0.278486	-0.0621979	0.0190295	1.42366	0.278494	-0.0624101	0.363608	0.631998	0.561311	0.211034	0.839691	0.107031	0.154076	1.28726	0.421664	0.218122	0.696763	-0.11755	0.71884	0.472478
0.278429	-0.0601509	0.0203719	1.45708	0.278437	-0.060437	0.364208	0.654879	0.561512	0.220084	0.839793	0.111598	0.154507	1.30165	0.421871	0.227346	0.696655	-0.114801	0.719286	0.485003
0.278374	-0.0576684	0.0217446	1.48899	0.278381	-0.0580291	0.364828	0.677351	0.561721	0.229102	0.839899	0.11619	0.154785	1.31072	0.422087	0.236567	0.696549	-0.111647	0.719743	0.497163
0.278322	-0.0547542	0.0231464	1.51947	0.278329	-0.0551907	0.36547	0.69937	0.561939	0.23813	0.84001	0.12076	0.155188	1.3236	0.422312	0.245778	0.696447	-0.108194	0.720212	0.508959
0.278272	-0.0514159	0.024576	1.54857	0.278279	-0.0519308	0.366131	0.720923	0.562165	0.247176	0.840124	0.125359	0.155631	1.33733	0.422545	0.255047	0.696348	-0.104438	0.720692	0.520392
0.278226	-0.0476692	0.026032	1.57632	0.278232	-0.0481943	0.366813	0.742057	0.5624	0.256187	0.840243	0.129942	0.15624	1.35573	0.422787	0.264282	0.696252	-0.10037	0.721182	0.531539
0.278183	-0.0434715	0.0275133	1.6028	0.278189	-0.0440172	0.367514	0.762717	0.562642	0.265201	0.840366	0.134494	0.157023	1.37838	0.423038	0.273525	0.696161	-0.0960404	0.721682	0.542408
0.278145	-0.0388114	0.0290187	1.62807	0.27815	-0.0394717	0.368234	0.782944	0.562894	0.274219	0.840494	0.139131	0.157986	1.40494	0.423297	0.28278	0.696073	-0.0914837	0.722193	0.553012
0.278111	-0.0337395	0.030547	1.65219	0.278115	-0.0344821	0.368973	0.802743	0.563153	0.283246	0.840626	0.143716	0.159139	1.43506	0.423565	0.29199	0.69599	-0.0866915	0.722713	0.563381
0.278082	-0.028283	0.0320973	1.67521	0.278085	-0.029044	0.36973	0.822127	0.563422	0.292291	0.840762	0.148273	0.160492	1.46814	0.423841	0.301255	0.695912	-0.0817214	0.723242	0.573498
0.278058	-0.0224237	0.0336686	1.69717	0.278061	-0.0232214	0.370505	0.841046	0.563698	0.3013	0.840902	0.152846	0.161875	1.49976	0.424126	0.310483	0.695838	-0.076542	0.723781	0.583406
0.27804	-0.0161251	0.0352598	1.71809	0.278042	-0.0169963	0.371297	0.859548	0.563983	0.310309	0.841046	0.15745	0.163287	1.53	0.424419	0.31971	0.695769	-0.0711637	0.72433	0.593114
0.278028	-0.0094605	0.0368701	1.73803	0.278029	-0.0104054	0.372107	0.877656	0.564276	0.319319	0.841195	0.162044	0.164726	1.55886	0.424722	0.329009	0.695705	-0.0656805	0.724887	0.602642
0.278022	-0.00243014	0.0384984	1.7571	0.278023	-0.00432745	0.372933	0.895342	0.564578	0.328329	0.841348	0.166619	0.166192	1.58636	0.425033	0.338231	0.695647	-0.0600608	0.725452	0.61203
0.278024	0.00503879	0.0401442	1.77533	0.278022	0.00107903	0.373775	0.912623	0.564888	0.337341	0.841506	0.171227	0.167682	1.61259	0.425352	0.347448	0.695593	-0.0542414	0.726027	0.621213
0.278032	0.0128721	0.0418066	1.79267	0.278024	0.00570357	0.374633	0.929533	0.565207	0.346356	0.841667	0.175829	0.169196	1.63762	0.42568	0.356725	0.695546	-0.0483153	0.72661	0.630275
0.278048	0.0209949	0.0434847	1.80926	0.278027	0.00942771	0.375507	0.946069	0.565533	0.355378	0.841833	0.180419	0.170734	1.66151	0.426017	0.365978	0.695503	-0.0423226	0.727201	0.639246
0.278071	0.02955	0.0451779	1.82509	0.278031	0.0123607	0.376396	0.962221	0.565869	0.364338	0.842004	0.184985	0.172292	1.6843	0.426362	0.375257	0.695467	-0.0361966	0.727801	0.648031
0.278103	0.0384572	0.0468855	1.84018	0.278034	0.0141669	0.3773	0.977973	0.566212	0.373324	0.842178	0.189576	0.173872	1.70599	0.426716	0.384511	0.695436	-0.0299503	0.728409	0.656665
0.278143	0.0476288	0.0486069	1.85463	0.278039	0.0167523	0.378219	0.993363	0.566564	0.382359	0.842357	0.194217	0.175471	1.72672	0.427078	0.393719	0.695411	-0.0236101	0.729025	0.665219
0.278191	0.0571831	0.0503414	1.86843	0.278045	0.0197751	0.379151	1.00847	0.566925	0.391348	0.84254	0.198811	0.17709	1.7465	0.42745	0.402978	0.695392	-0.0172286	0.729649	0.673683
0.278249	0.0670632	0.0520885	1.88161	0.278055	0.0238124	0.380098	1.02315	0.567294	0.400317	0.842727	0.203384	0.178726	1.76532	0.427829	0.412269	0.695379	-0.0107644	0.73028	0.682042
0.278316	0.0772285	0.0538476	1.8942	0.27807	0.0290805	0.381058	1.03751	0.567671	0.40932	0.842919	0.20799	0.180379	1.7833	0.428218	0.421548	0.695372	-0.00420807	0.730919	0.690264
0.278393	0.0877448	0.0556182	1.90625	0.278092	0.0356406	0.382031	1.05158	0.568056	0.418317	0.843115	0.212588	0.182049	1.80046	0.428615	0.430806	0.695371	0.00238605	0.731566	0.698433
0.27848	0.0985234	0.0573997	1.91777	0.278124	0.0435652	0.383017	1.06527	0.56845	0.427303	0.843315	0.217169	0.183734	1.8168	0.429021	0.440019	0.695376	0.00905573	0.732221	0.706493
0.278577	0.109607	0.0591917	1.9288	0.278169	0.0529896	0.384016	1.07868	0.568853	0.436265	0.84352	0.22179	0.185434	1.83244	0.429435	0.449289	0.695388	0.0158033	0.732883	0.714483
0.278684	0.121007	0.0609938	1.93936	0.278223	0.0627556	0.385027	1.09181	0.569263	0.445254	0.843728	0.226419	0.187149	1.84733	0.429858	0.458601	0.695406	0.0225602	0.733552	0.722406
0.278802	0.132676	0.0628055	1.94942	0.278286	0.0727655	0.386051	1.10458	0.569682	0.454222	0.843941	0.230988	0.188877	1.86151	0.430289	0.467851	0.69543	0.0294088	0.734229	0.730196
0.278931	0.144587	0.0646263	1.95907	0.278358	0.0831171	0.386952	1.1155	0.57011	0.46315	0.844159	0.235584	0.190617	1.87512	0.43073	0.477121	0.695461	0.0362947	0.734913	0.73794
0.279072	0.156763	0.066456	1.96833	0.278441	0.0938227	0.387727	1.1247	0.570545	0.472144	0.84438	0.240237	0.192371	1.88808	0.431178	0.486433	0.695498	0.0431816	0.735604	0.745664
0.279223	0.16925	0.0682941	1.97718	0.278533	0.104779	0.388373	1.13208	0.570989	0.481123	0.844606	0.244855	0.194136	1.90042	0.431636	0.495682	0.695541	0.0501439	0.736302	0.753274
0.279387	0.181992	0.0701403	1.98564	0.278636	0.116006	0.388887	1.13791	0.571442	0.490073	0.844837	0.249403	0.195912	1.91223	0.432102	0.504953	0.695591	0.0571104	0.737008	0.760805
0.279563	0.194952	0.0719941	1.99379	0.278749	0.127552	0.389266	1.14217	0.571903	0.499036	0.845071	0.254032	0.197699	1.92352	0.432577	0.514264	0.695647	0.0641588	0.73772	0.768323
0.27975	0.208128	0.0738555	2.00158	0.278874	0.139368	0.389509	1.14475	0.572372	0.507953	0.84531	0.258675	0.199496	1.93429	0.432998	0.522316	0.695711	0.0712243	0.738439	0.77574
0.27995	0.22159	0.0757239	2.00904	0.279009	0.151428	0.38986	1.14862	0.572849	0.516926	0.845553	0.263275	0.201303	1.94458	0.433362	0.529229	0.69578	0.0782507	0.739166	0.783105
0.280163	0.235258	0.0775991	2.01619	0.279156	0.163794	0.390243	1.15282	0.573335	0.525862	0.845801	0.267859	0.20312	1.95441	0.433666	0.534965	0.695856	0.0853456	0.739899	0.790438
0.280389	0.249189	0.0794808	2.02302	0.279314	0.176422	0.390766	1.15831	0.573829	0.534799	0.846052	0.272486	0.204945	1.9638	0.433909	0.539391	0.695939	0.0925041	0.740638	0.797705
0.280627	0.263355	0.0813688	2.02966	0.279485	0.189254	0.391431	1.16533	0.574332	0.543738	0.846308	0.277127	0.206779	1.97278	0.434089	0.542663	0.696029	0.0996433	0.741385	0.804914
0.280879	0.277698	0.0832629	2.03597	0.279667	0.202336	0.392241	1.17361	0.574842	0.55268	0.846569	0.281721	0.208621	1.98133	0.434205	0.544886	0.696125	0.106817	0.742138	0.812083
0.281145	0.292321	0.0851626	2.042	0.279862	0.215725	0.393197	1.18309	0.575361	0.561628	0.846833	0.286367	0.210471	1.98949	0.434372	0.547968	0.696228	0.113988	0.742898	0.81917
0.281424	0.307139	0.0870679	2.04783	0.280069	0.229304	0.394305	1.1938	0.575889	0.570517	0.847102	0.290973	0.212328	1.99734	0.434555	0.551258	0.696337	0.121151	0.743665	0.826238
0.281717	0.322126	0.0889785	2.05342	0.280289	0.243125	0.395422	1.20428	0.576424	0.579431	0.847376	0.29557	0.214193	2.00482	0.434806	0.555817	0.696453	0.128372	0.744438	0.833271
0.282024	0.337378	0.0908942	2.0588	0.280522	0.257176	0.396549	1.21453	0.576968	0.588323	0.847653	0.300223	0.216064	2.01192	0.435125	0.561482	0.696576	0.135637	0.745217	0.840231
0.282346	0.352868	0.0928148	2.06393	0.280768	0.271416	0.397685	1.22453	0.577521	0.597246	0.847935	0.304841	0.217942	2.01877	0.435516	0.568406	0.696706	0.142842	0.746004	0.847121
0.282682	0.368541	0.0947401	2.06885	0.281028	0.285934	0.398831	1.23429	0.578081	0.606157	0.848221	0.309464	0.219826	2.02528	0.435981	0.576464	0.696843	0.150075	0.746796	0.854017
0.283033	0.384433	0.0966699	2.07363	0.281301	0.300663	0.399985	1.24386	0.57865	0.615042	0.848512	0.314095	0.221716	2.03149	0.436523	0.58578	0.696986	0.157364	0.747595	0.860849
0.283398	0.400542	0.0986041	2.07822	0.281588	0.315572	0.401148	1.25322	0.579227	0.623951	0.848806	0.318742	0.223611	2.03746	0.437073	0.595125	0.697136	0.164618	0.7484	0.867629
0.283779	0.416867	0.100542	2.08255	0.281889	0.330717	0.40232	1.26237	0.579813	0.632832	0.849106	0.32335	0.225512	2.04315	0.437632	0.604448	0.697293	0.171873	0.749212	0.874378
0.284175	0.433404	0.102485	2.08675	0.282204	0.346126	0.403501	1.27127	0.580407	0.641732	0.849409	0.327951	0.227418	2.04856	0.438199	0.613725	0.697456	0.179134	0.750029	0.881064
0.284587	0.450145	0.104431	2.09083	0.282534	0.361704	0.404689	1.28	0.581009	0.650597	0.849717	0.332612	0.229329	2.05372	0.438775	0.623013	0.697626	0.186404	0.750853	0.887772
0.285014	0.467146	0.106381	2.09475	0.282878	0.377477	0.405886	1.28858	0.581619	0.659464	0.850029	0.337247	0.231245	2.05864	0.43936	0.632345	0.697803	0.193693	0.751684	0.894375
0.285457	0.484377	0.108334	2.09847	0.283237	0.393493	0.40709	1.29689	0.582158	0.667197	0.850345	0.341902	0.233165	2.06337	0.439953	0.641699	0.697987	0.201019	0.75252	0.900917
0.285916	0.501774	0.110291	2.10203	0.283612	0.409741	0.408302	1.30504	0.582622	0.67376	0.850666	0.346524	0.23509	2.06786	0.440556	0.651026	0.698178	0.208275	0.753362	0.907482
0.28633	0.517122	0.112251	2.1055	0.284001	0.426177	0.409522	1.31304	0.583009	0.67916	0.850991	0.351155	0.237019	2.07212	0.441167	0.660341	0.698375	0.215537	0.754211	0.914019
0.286693	0.530397	0.114214	2.10884	0.284406	0.442855	0.410749	1.32084	0.583317	0.683511	0.85132	0.355801	0.238951	2.07623	0.441786	0.669649	0.69858	0.222882	0.755066	0.920503
0.286999	0.541443	0.115928	2.11163	0.284826	0.459727	0.411983	1.32844	0.583545	0.686649	0.851654	0.360407	0.240888	2.08008	0.442414	0.678991	0.698791	0.230174	0.755926	0.926878
0.287246	0.550326	0.11739	2.11394	0.285262	0.476805	0.413224	1.33591	0.583691	0.688721	0.851992	0.365078	0.242827	2.08376	0.443051	0.688349	0.699009	0.237434	0.756793	0.933256
0.28743	0.55684	0.1186	2.11584	0.285715	0.49417	0.414473	1.34323	0.583903	0.691635	0.852334	0.369733	0.24477	2.08728	0.443697	0.697716	0.699233	0.244703	0.757665	0.93964
0.287549	0.560981	0.119558	2.11721	0.286183	0.511752	0.415727	1.35033	0.584133	0.694703	0.852681	0.374355	0.246717	2.09062	0.444351	0.70705	0.699465	0.251991	0.758544	0.945962
0.287722	0.567012	0.120263	2.11822	0.286668	0.529551	0.416989	1.35729	0.584449	0.699057	0.853032	0.378983	0.248666	2.09383	0.445015	0.716368	0.699703	0.259315	0.759428	0.952235
0.287912	0.573571	0.120714	2.11889	0.28717	0.54757	0.418257	1.36413	0.58485	0.704459	0.853387	0.383627	0.250618	2.09682	0.445686	0.725751	0.699948	0.266566	0.760318	0.958482
0.288173	0.582636	0.121363	2.11991	0.287689	0.56588	0.419531	1.37082	0.58534	0.711061	0.853747	0.3883	0.252573	2.09964	0.446367	0.73513	0.700199	0.273818	0.761214	0.964678
0.28851	0.594176	0.122068	2.12095	0.288224	0.584448	0.420811	1.37731	0.585921	0.71876	0.85411	0.392958	0.254531	2.10237	0.447056	0.744471	0.700458	0.281143	0.762116	0.970843
0.288926	0.608228	0.123029	2.12219	0.288778	0.603253	0.422097	1.38367	0.586594	0.727528	0.854479	0.397587	0.256491	2.1049	0.447754	0.753828	0.700723	0.288395	0.763023	0.977022
0.289427	0.624942	0.124244	2.12384	0.289348	0.622323	0.423389	1.38988	0.587276	0.736343	0.854851	0.402231	0.258453	2.1073	0.448461	0.763231	0.70096	0.294711	0.763936	0.983081
0.290018	0.644323	0.125714	2.12579	0.289937	0.641709	0.424687	1.396	0.587967	0.745181	0.855228	0.406904	0.260418	2.1096	0.449176	0.772584	0.701166	0.300077	0.764855	0.989119
0.290628	0.664048	0.127441	2.12802	0.290544	0.661364	0.425991	1.40195	0.588665	0.753995	0.85561	0.411563	0.262384	2.11174	0.449901	0.781947	0.701339	0.304507	0.765779	0.995189
0.291255	0.684054	0.129425	2.13048	0.29117	0.681335	0.427299	1.40774	0.589372	0.76276	0.855995	0.416194	0.264353	2.11373	0.450633	0.79139	0.701477	0.308135	0.766709	1.00118
0.291902	0.704385	0.131411	2.13284	0.291814	0.701611	0.428614	1.41346	0.590086	0.771537	0.856385	0.420842	0.266323	2.1156	0.451375	0.800762	0.70158	0.310696	0.767645	1.00715
0.292568	0.725023	0.133399	2.13508	0.292477	0.722222	0.429933	1.41903	0.590809	0.78032	0.856779	0.425522	0.268295	2.11738	0.452126	0.810136	0.701647	0.312263	0.768586	1.01308
0.293253	0.746036	0.135389	2.13727	0.29316	0.743185	0.431258	1.42445	0.59154	0.789106	0.857178	0.430196	0.270268	2.119	0.452885	0.819583	0.701743	0.314651	0.769533	1.01894
0.293958	0.767382	0.137382	2.13938	0.293862	0.764469	0.432588	1.42976	0.59228	0.797857	0.857581	0.434855	0.272243	2.12054	0.453653	0.828958	0.701848	0.317336	0.770485	1.02481
0.294683	0.789115	0.139376	2.14136	0.294584	0.786171	0.433922	1.43498	0.593027	0.80659	0.857988	0.439486	0.27422	2.12197	0.454429	0.838369	0.701992	0.320855	0.771319	1.02989
0.295429	0.811261	0.141372	2.1433	0.295327	0.808228	0.435262	1.44004	0.593783	0.815351	0.8584	0.444135	0.276197	2.12324	0.455215	0.847799	0.702177	0.325239	0.772033	1.03417
0.296195	0.833759	0.14337	2.14515	0.29609	0.830719	0.436605	1.44499	0.594546	0.824053	0.858816	0.448817	0.278176	2.12445	0.456009	0.857202	0.702404	0.330608	0.772626	1.03768
0.296982	0.856727	0.145369	2.14695	0.296875	0.85361	0.437954	1.44984	0.595318	0.832799	0.859236	0.453494	0.280156	2.12554	0.456812	0.866664	0.702675	0.336903	0.773096	1.04056
0.297791	0.880113	0.14737	2.14866	0.297681	0.876921	0.439307	1.45458	0.596098	0.841529	0.859661	0.458162	0.282137	2.12652	0.457624	0.876082	0.702992	0.344112	0.773443	1.04271
0.298622	0.903964	0.149373	2.15028	0.298509	0.900734	0.440665	1.45925	0.596886	0.850179	0.86009	0.462808	0.284119	2.12745	0.458445	0.885479	0.703316	0.351342	0.773665	1.04397
0.299476	0.928305	0.151377	2.1519	0.299359	0.924982	0.442026	1.46375	0.597682	0.858899	0.860523	0.467488	0.286101	2.12825	0.459274	0.894938	0.703647	0.358546	0.773985	1.04573
0.300352	0.953109	0.153383	2.1534	0.300232	0.949741	0.443392	1.46816	0.598487	0.86758	0.860961	0.472159	0.288084	2.12894	0.460112	0.904428	0.703984	0.3657	0.774333	1.04781
0.301252	0.978438	0.15539	2.15481	0.301129	0.975011	0.444762	1.47249	0.599299	0.876242	0.861403	0.476815	0.290068	2.12954	0.460959	0.913861	0.704329	0.372902	0.774808	1.05058
0.302175	1.00432	0.157398	2.15621	0.302049	1.00076	0.446136	1.4767	0.60012	0.884931	0.861792	0.480904	0.292052	2.1301	0.461815	0.923301	0.704679	0.380056	0.77541	1.05404
0.303123	1.03071	0.159408	2.15757	0.302994	1.02707	0.447514	1.48086	0.600948	0.89356	0.862126	0.484352	0.294037	2.13052	0.46268	0.932782	0.705037	0.387222	0.776141	1.05829
0.304096	1.05763	0.161418	2.15884	0.303963	1.05399	0.448895	1.48488	0.601785	0.902196	0.862404	0.487245	0.296022	2.13084	0.463553	0.942247	0.705401	0.394393	0.777002	1.06315
0.305094	1.08515	0.16343	2.16006	0.304958	1.08145	0.450281	1.4888	0.602629	0.910798	0.862625	0.489496	0.298008	2.13115	0.464436	0.95174	0.705772	0.401495	0.777996	1.06877
0.306118	1.11327	0.165444	2.16122	0.305978	1.10942	0.45167	1.49266	0.603482	0.919421	0.862788	0.491112	0.299994	2.13131	0.465327	0.961211	0.706149	0.408634	0.778994	1.07433
