Sym0		Asym0		Sym1		Sym2		Sym3		Sym4		Asym1		Asym2		Asym3		Asym4	
450  Points		536  Points		450  Points		398  Points		363  Points		274  Points		477  Points		414  Points		364  Points		276  Points	
Freq (MHz)	Vgr (m/ms)	Freq (MHz)	Vgr (m/ms)	Freq (MHz)	Vgr (m/ms)	Freq (MHz)	Vgr (m/ms)	Freq (MHz)	Vgr (m/ms)	Freq (MHz)	Vgr (m/ms)	Freq (MHz)	Vgr (m/ms)	Freq (MHz)	Vgr (m/ms)	Freq (MHz)	Vgr (m/ms)	Freq (MHz)	Vgr (m/ms)
0.279508	-0.00405958	0.000352629	0.268532	0.279507	-0.00603657	0.356917	0.0192293	0.559017	0.00766126	0.838526	0.00447084	0.139755	0.0477375	0.419265	0.010952	0.69877	-0.0111166	0.713834	0.0196874
0.279504	-0.00630262	0.000602819	0.303728	0.279501	-0.00831138	0.356935	0.0342236	0.559025	0.0124	0.83853	0.00685993	0.1398	0.0840562	0.419275	0.0157651	0.69876	-0.0165695	0.713852	0.0329841
0.279496	-0.0107612	0.000918592	0.373647	0.279492	-0.0127188	0.35698	0.0641916	0.559041	0.0218557	0.838539	0.0116834	0.139912	0.156538	0.419294	0.0254436	0.698739	-0.027362	0.713895	0.0595441
0.279484	-0.0151374	0.00129907	0.442585	0.279478	-0.0170659	0.357054	0.0940983	0.559065	0.0312454	0.838552	0.0164965	0.140091	0.228551	0.419322	0.0351328	0.698709	-0.0378142	0.713963	0.0858574
0.279468	-0.0194221	0.0017433	0.510297	0.27946	-0.0212923	0.357156	0.123883	0.559099	0.0406499	0.838569	0.0212886	0.140338	0.299923	0.419359	0.0448432	0.698669	-0.0478788	0.714055	0.111751
0.279448	-0.0235969	0.00224995	0.576652	0.279438	-0.0253506	0.357285	0.153568	0.559141	0.050084	0.838592	0.0261121	0.14065	0.370449	0.419406	0.0545228	0.698619	-0.0573878	0.714171	0.137097
0.279424	-0.0275519	0.00281783	0.641541	0.279413	-0.0292925	0.357442	0.183056	0.559192	0.0595038	0.838618	0.0309251	0.141028	0.439943	0.419461	0.064214	0.698562	-0.0662251	0.71431	0.161861
0.279397	-0.0313604	0.00344539	0.704815	0.279383	-0.0330013	0.357626	0.21237	0.559252	0.0688951	0.838649	0.0357171	0.14147	0.508252	0.419525	0.0739284	0.698496	-0.0744516	0.714473	0.185976
0.279366	-0.0349491	0.00413118	0.766397	0.279351	-0.0364639	0.357838	0.24148	0.55932	0.0783028	0.838685	0.0405403	0.141975	0.575217	0.419599	0.0836159	0.698423	-0.0818957	0.714657	0.209301
0.279332	-0.0382446	0.00487349	0.826207	0.279315	-0.0396536	0.358076	0.270331	0.559398	0.0877433	0.838725	0.0453528	0.142542	0.640739	0.419681	0.0933231	0.698343	-0.0885807	0.714863	0.231856
0.279295	-0.0413201	0.00567072	0.884156	0.279277	-0.0425908	0.358341	0.298955	0.559484	0.0971759	0.838769	0.0501438	0.143169	0.704694	0.419773	0.102996	0.698258	-0.0944801	0.715089	0.253675
0.279255	-0.0441018	0.00652102	0.940215	0.279236	-0.0452426	0.358633	0.327272	0.559579	0.106593	0.838818	0.054965	0.143855	0.766905	0.419873	0.112675	0.698167	-0.0995406	0.715335	0.274682
0.279212	-0.0465891	0.00742271	0.994399	0.279193	-0.0475431	0.358951	0.35527	0.559683	0.115979	0.838872	0.0597735	0.144598	0.827314	0.419983	0.122363	0.698072	-0.103876	0.715601	0.294868
0.279168	-0.0487072	0.00837397	1.04659	0.279148	-0.0495075	0.359295	0.382919	0.559795	0.125376	0.838929	0.0645565	0.145396	0.885949	0.420101	0.132073	0.697974	-0.107418	0.715885	0.314293
0.279122	-0.0504533	0.00937291	1.09685	0.279101	-0.0511657	0.359665	0.410241	0.559916	0.134794	0.838992	0.0693617	0.146249	0.942647	0.420229	0.14175	0.697872	-0.110183	0.716187	0.332929
0.279074	-0.0518946	0.0104178	1.14521	0.279052	-0.0524313	0.36006	0.437197	0.560046	0.144183	0.839059	0.0742114	0.147153	0.997449	0.420365	0.151437	0.697768	-0.112269	0.716505	0.350865
0.279025	-0.0529462	0.0115069	1.19163	0.279003	-0.053278	0.360479	0.463791	0.560185	0.153585	0.83913	0.0790035	0.148107	1.05029	0.420511	0.161143	0.697663	-0.113659	0.71684	0.36806
0.278975	-0.0535846	0.0126383	1.23612	0.278953	-0.0537263	0.360924	0.489953	0.560332	0.163015	0.839206	0.083827	0.14911	1.10119	0.420665	0.170813	0.697557	-0.114388	0.717191	0.384578
0.278925	-0.0538359	0.0138103	1.2788	0.278903	-0.0538172	0.361392	0.515689	0.560489	0.172426	0.839286	0.0886401	0.150159	1.15018	0.420829	0.180486	0.69745	-0.114527	0.717557	0.400549
0.278875	-0.0536794	0.0150212	1.31965	0.278853	-0.0534863	0.361885	0.541088	0.560654	0.1818	0.839371	0.0934323	0.151253	1.19726	0.421002	0.190164	0.697343	-0.114072	0.717937	0.415866
0.278825	-0.0530735	0.0162693	1.3587	0.278803	-0.052678	0.362401	0.566031	0.560827	0.191174	0.83946	0.0982559	0.152242	1.23673	0.421183	0.199851	0.697237	-0.11309	0.718332	0.430605
0.278776	-0.0520812	0.017553	1.3961	0.278754	-0.0515008	0.36294	0.590501	0.56101	0.200619	0.839554	0.103069	0.153109	1.2693	0.421374	0.209559	0.697133	-0.111638	0.71874	0.44485
0.278728	-0.0506828	0.0188707	1.43178	0.278707	-0.0498789	0.363501	0.61454	0.561201	0.209987	0.839653	0.107862	0.153843	1.29549	0.421574	0.219232	0.697029	-0.109687	0.719161	0.458618
0.278682	-0.0487647	0.020221	1.46585	0.278662	-0.047807	0.364085	0.638154	0.561401	0.219349	0.839755	0.112686	0.154434	1.31562	0.421783	0.228911	0.696928	-0.107322	0.719594	0.471944
0.278637	-0.0464666	0.0216022	1.49841	0.278618	-0.0453478	0.36469	0.66136	0.56161	0.228771	0.839862	0.1175	0.154874	1.33013	0.422001	0.238601	0.696829	-0.10457	0.72004	0.484827
0.278595	-0.0437747	0.0230131	1.52946	0.278577	-0.042407	0.365317	0.684113	0.561828	0.238167	0.839974	0.122295	0.155158	1.33938	0.422227	0.24824	0.696733	-0.101409	0.720498	0.497336
0.278556	-0.0405883	0.0244522	1.55905	0.278539	-0.0390155	0.365965	0.706402	0.562054	0.247511	0.84009	0.127124	0.155571	1.35247	0.422463	0.257923	0.69664	-0.0979443	0.720967	0.509464
0.278519	-0.0369985	0.0259182	1.58732	0.278504	-0.0352354	0.366633	0.728202	0.562289	0.256897	0.840211	0.131948	0.156023	1.36638	0.422708	0.26762	0.696551	-0.0941643	0.721447	0.521269
0.278487	-0.0329685	0.02741	1.61426	0.278473	-0.0310444	0.367322	0.749609	0.562532	0.266295	0.840336	0.136763	0.156645	1.38502	0.422962	0.277274	0.696465	-0.0901199	0.721938	0.532793
0.278458	-0.0284973	0.0289262	1.63988	0.278446	-0.0263978	0.36803	0.770598	0.562785	0.275641	0.840466	0.141558	0.157445	1.40802	0.423225	0.286913	0.696383	-0.0857664	0.72244	0.543977
0.278433	-0.0236565	0.0304657	1.66438	0.278424	-0.0213527	0.368758	0.791116	0.563046	0.285033	0.8406	0.146387	0.158429	1.43495	0.423496	0.296598	0.696305	-0.0811611	0.722952	0.554918
0.278414	-0.0183695	0.0320276	1.68775	0.278407	-0.0158766	0.369504	0.811203	0.563316	0.294367	0.840739	0.15121	0.159606	1.46539	0.423777	0.306298	0.696232	-0.0763449	0.723474	0.565595
0.278399	-0.0126293	0.0336106	1.70995	0.278395	-0.00997816	0.370269	0.830871	0.563595	0.303735	0.840882	0.156024	0.160988	1.49887	0.424067	0.315958	0.696163	-0.0713268	0.724006	0.576035
0.27839	-0.00649565	0.0352139	1.73113	0.278388	-0.00367443	0.371053	0.850137	0.563882	0.313094	0.841029	0.160817	0.162399	1.53092	0.424366	0.32561	0.696099	-0.0661247	0.724547	0.586294
0.278387	-1.44949e-005	0.0368364	1.75138	0.278388	0.00300039	0.371854	0.868969	0.564178	0.322438	0.841181	0.165643	0.16384	1.56149	0.424674	0.335245	0.69604	-0.0607009	0.725098	0.596341
0.27839	0.00686872	0.0384774	1.77064	0.278394	0.0100512	0.372672	0.887368	0.564483	0.331825	0.841338	0.17046	0.165309	1.59061	0.424991	0.344922	0.695986	-0.0551267	0.725659	0.606179
0.2784	0.0141898	0.0401358	1.789	0.278404	0.016594	0.373507	0.905344	0.564796	0.341149	0.841499	0.17526	0.166804	1.61847	0.425317	0.354606	0.695937	-0.0493982	0.726228	0.615822
0.278417	0.0218741	0.041811	1.80655	0.278418	0.0223285	0.374359	0.922986	0.565119	0.350496	0.841665	0.1801	0.168325	1.64499	0.425651	0.364234	0.695894	-0.0435809	0.726806	0.625367
0.278441	0.0299183	0.0435021	1.82327	0.278432	0.027125	0.375227	0.940251	0.565449	0.359815	0.841835	0.184947	0.16987	1.67031	0.425995	0.373896	0.695856	-0.0375859	0.727393	0.634714
0.278472	0.0383164	0.0452084	1.83919	0.278445	0.0311906	0.376111	0.957057	0.565789	0.369152	0.842009	0.189732	0.171437	1.69442	0.426348	0.383551	0.695824	-0.0314553	0.727989	0.643888
0.278512	0.0470559	0.0469292	1.8544	0.278456	0.0341415	0.37701	0.973529	0.566137	0.378524	0.842188	0.194542	0.173027	1.71743	0.42671	0.393192	0.695797	-0.0252733	0.728593	0.653008
0.27856	0.0561854	0.0486639	1.86894	0.278464	0.036042	0.377925	0.989629	0.566494	0.387819	0.842372	0.1994	0.174638	1.73937	0.427081	0.402881	0.695776	-0.0189151	0.729206	0.661945
0.278617	0.0656551	0.0504118	1.88278	0.278475	0.0388367	0.378854	1.00535	0.56686	0.397107	0.84256	0.20421	0.176268	1.76031	0.427461	0.412517	0.695762	-0.0124976	0.729826	0.670737
0.278682	0.0754394	0.0521723	1.89603	0.278488	0.0419576	0.379798	1.02075	0.567234	0.406456	0.842752	0.208996	0.177918	1.78029	0.42785	0.422122	0.695753	-0.00603451	0.730455	0.679459
0.278757	0.0855598	0.0539448	1.90868	0.278508	0.0463363	0.380756	1.03581	0.567617	0.415778	0.842949	0.213808	0.179586	1.7993	0.428247	0.43181	0.695751	0.00059276	0.731093	0.688041
0.278842	0.095986	0.0557289	1.92074	0.278536	0.051821	0.381728	1.05053	0.568009	0.425047	0.843151	0.218671	0.181271	1.81744	0.428654	0.441445	0.695754	0.00725551	0.731738	0.696562
0.278936	0.106731	0.0575239	1.93225	0.278575	0.0587127	0.382714	1.0649	0.568409	0.434357	0.843357	0.223488	0.182972	1.83475	0.42907	0.451047	0.695764	0.0139892	0.732391	0.704963
0.279041	0.117821	0.0593294	1.94327	0.278626	0.0670135	0.383713	1.07892	0.568818	0.443675	0.843567	0.22829	0.184689	1.85128	0.429495	0.460729	0.69578	0.0207916	0.733051	0.713267
0.279156	0.12916	0.061145	1.95381	0.278693	0.0768836	0.384724	1.09268	0.569236	0.452935	0.843782	0.233132	0.186422	1.86705	0.429928	0.470351	0.695803	0.027658	0.73372	0.721525
0.279281	0.14078	0.0629701	1.96389	0.278769	0.0870555	0.385749	1.10613	0.569662	0.462228	0.844002	0.237983	0.188168	1.88212	0.430371	0.480002	0.695832	0.0345793	0.734396	0.72962
0.279418	0.15274	0.0648045	1.97351	0.278855	0.0975247	0.386786	1.11925	0.570097	0.471511	0.844226	0.242778	0.189929	1.8965	0.430823	0.489635	0.695867	0.0415373	0.735079	0.737679
0.279566	0.164941	0.0666475	1.98272	0.278951	0.108326	0.387699	1.13045	0.570541	0.480776	0.844454	0.247606	0.191702	1.9102	0.431283	0.499232	0.695909	0.0485683	0.73577	0.745668
0.279725	0.177405	0.0684991	1.99154	0.279057	0.119439	0.388485	1.13982	0.570993	0.490078	0.844687	0.252429	0.193488	1.92328	0.431753	0.508907	0.695958	0.0555993	0.736469	0.753588
0.279897	0.190174	0.0703586	1.99996	0.279173	0.130819	0.389139	1.1475	0.571454	0.499307	0.844924	0.257241	0.195286	1.93576	0.432232	0.518514	0.696013	0.0627031	0.737174	0.761446
0.28008	0.203187	0.0722258	2.008	0.279301	0.142478	0.38966	1.15346	0.571924	0.508535	0.845166	0.262103	0.197095	1.94771	0.432719	0.528133	0.696075	0.0698795	0.737888	0.769177
0.280275	0.216397	0.0741003	2.01574	0.279439	0.154459	0.390044	1.15785	0.572402	0.517837	0.845413	0.266921	0.198916	1.95914	0.433216	0.537778	0.696143	0.0770545	0.738608	0.776877
0.280483	0.229927	0.0759819	2.02316	0.279588	0.166713	0.390291	1.16068	0.572889	0.527065	0.845664	0.271723	0.200746	1.97005	0.433656	0.54615	0.696218	0.0842268	0.739335	0.784512
0.280704	0.243728	0.0778702	2.03024	0.279749	0.179248	0.390647	1.16453	0.573384	0.536292	0.845919	0.276566	0.202587	1.98045	0.434036	0.553319	0.6963	0.0914669	0.74007	0.792092
0.280937	0.257709	0.079765	2.03706	0.279922	0.192034	0.391035	1.16872	0.573888	0.545519	0.846179	0.281419	0.204436	1.99038	0.434355	0.559286	0.696389	0.0987695	0.740811	0.799634
0.281184	0.271974	0.081666	2.04354	0.280107	0.205055	0.391565	1.17449	0.574401	0.554745	0.846443	0.286216	0.206295	1.99988	0.434609	0.563868	0.696484	0.10605	0.74156	0.807102
0.281444	0.286442	0.0835729	2.04975	0.280304	0.218378	0.39224	1.18166	0.574922	0.563967	0.846712	0.29105	0.208163	2.00899	0.434797	0.567213	0.696586	0.113361	0.742315	0.814493
0.281718	0.301168	0.0854855	2.05574	0.280514	0.231924	0.393061	1.19021	0.575451	0.573183	0.846986	0.295884	0.210039	2.01769	0.434918	0.569508	0.696695	0.120731	0.743077	0.821879
0.282005	0.316118	0.0874035	2.06148	0.280737	0.245691	0.394031	1.20001	0.57599	0.582386	0.847264	0.300718	0.211923	2.02595	0.435093	0.572759	0.696811	0.128075	0.743847	0.82918
0.282307	0.331297	0.0893269	2.06697	0.280972	0.259753	0.395154	1.21105	0.576537	0.591564	0.847546	0.305552	0.213814	2.03389	0.435284	0.576143	0.696934	0.135438	0.744622	0.836384
0.282623	0.346714	0.0912551	2.07222	0.281221	0.274035	0.396288	1.22184	0.577092	0.600765	0.847833	0.310386	0.215713	2.04149	0.435546	0.580804	0.697064	0.142839	0.745405	0.843614
0.282953	0.362313	0.0931882	2.0773	0.281483	0.288536	0.397431	1.2324	0.577656	0.609938	0.848124	0.31522	0.217618	2.04876	0.43588	0.586689	0.6972	0.150243	0.746194	0.850751
0.283298	0.378203	0.0951259	2.08211	0.281758	0.303331	0.398584	1.24273	0.578229	0.61913	0.84842	0.320054	0.21953	2.0557	0.436289	0.593846	0.697344	0.157655	0.74699	0.857846
0.283658	0.39431	0.097068	2.08676	0.282048	0.318309	0.399747	1.25284	0.57881	0.628284	0.848721	0.324888	0.221449	2.06228	0.436774	0.602257	0.697494	0.165081	0.747793	0.864932
0.284032	0.410629	0.0990144	2.09123	0.282351	0.333488	0.400919	1.26277	0.579399	0.637436	0.849026	0.329722	0.223373	2.06865	0.43734	0.61185	0.697651	0.172536	0.748602	0.871926
0.284423	0.427155	0.100965	2.09548	0.282669	0.348952	0.4021	1.27242	0.579998	0.646586	0.849335	0.334556	0.225303	2.07472	0.437914	0.621445	0.697815	0.179976	0.749418	0.878882
0.284828	0.443947	0.102919	2.09959	0.283002	0.36463	0.40329	1.28186	0.580604	0.655731	0.849649	0.33939	0.227239	2.08047	0.438498	0.631076	0.697987	0.187457	0.75024	0.885838
0.28525	0.460978	0.104877	2.10356	0.283349	0.380489	0.404488	1.29116	0.581219	0.664865	0.849968	0.344225	0.22918	2.08598	0.43909	0.640725	0.698165	0.19495	0.751068	0.892718
0.285687	0.478195	0.106839	2.10731	0.283711	0.396622	0.405696	1.3002	0.581843	0.673979	0.850291	0.349059	0.231126	2.09126	0.439692	0.650311	0.69835	0.20239	0.751903	0.899519
0.286141	0.495709	0.108804	2.11094	0.284088	0.413001	0.406911	1.30904	0.582475	0.683123	0.850618	0.353895	0.233077	2.09632	0.440302	0.659901	0.698542	0.209874	0.752744	0.90631
0.286611	0.513452	0.110772	2.11447	0.28448	0.429577	0.408135	1.31771	0.583033	0.691079	0.85095	0.358732	0.235032	2.10112	0.440921	0.66953	0.698741	0.217371	0.753592	0.913081
0.287098	0.531434	0.11249	2.11738	0.284888	0.446361	0.409366	1.32619	0.583514	0.697809	0.851287	0.363571	0.236992	2.10572	0.44155	0.679142	0.698947	0.224821	0.754446	0.919811
0.287601	0.549674	0.113957	2.11978	0.285312	0.463433	0.410606	1.33449	0.583915	0.703358	0.851628	0.368417	0.238956	2.1101	0.442187	0.688782	0.69916	0.232322	0.755306	0.926459
0.288054	0.565768	0.11517	2.12165	0.285752	0.480721	0.411853	1.34259	0.584234	0.707839	0.851973	0.373273	0.240924	2.11427	0.442833	0.698362	0.69938	0.239856	0.756172	0.93309
0.28845	0.579636	0.116131	2.12323	0.286208	0.498227	0.413108	1.35056	0.58447	0.711091	0.852323	0.37808	0.242896	2.11826	0.443488	0.70795	0.699607	0.247305	0.757045	0.939688
0.288785	0.591254	0.116838	2.12427	0.28668	0.516025	0.41437	1.35836	0.584622	0.71308	0.852678	0.382932	0.244871	2.12205	0.444152	0.717614	0.699841	0.254805	0.757923	0.946218
0.289055	0.600549	0.11729	2.12492	0.287169	0.53408	0.415639	1.36592	0.584841	0.716099	0.853037	0.387801	0.24685	2.12567	0.444825	0.727207	0.700082	0.262336	0.758808	0.95276
0.289256	0.607489	0.117941	2.12598	0.287675	0.552336	0.416915	1.37336	0.585079	0.719421	0.8534	0.392634	0.248832	2.12912	0.445507	0.736801	0.700329	0.26978	0.759699	0.959253
0.289386	0.611799	0.118648	2.12702	0.288199	0.570875	0.418198	1.38067	0.585406	0.723741	0.853768	0.397465	0.250817	2.13235	0.446198	0.746432	0.700584	0.27727	0.760595	0.965646
0.289574	0.618054	0.119611	2.12842	0.288739	0.589703	0.419488	1.38777	0.585822	0.729299	0.854141	0.402292	0.252806	2.13547	0.446898	0.756008	0.700846	0.284779	0.761498	0.97206
0.289781	0.625133	0.12083	2.13012	0.289297	0.608822	0.420784	1.39472	0.586329	0.736089	0.854518	0.407114	0.254797	2.13842	0.447607	0.76563	0.701115	0.292255	0.762407	0.978443
0.290066	0.634581	0.122305	2.13209	0.289874	0.628232	0.422087	1.40157	0.58693	0.743978	0.854899	0.411995	0.25679	2.14118	0.448325	0.775239	0.701391	0.299735	0.763321	0.984764
0.290433	0.646698	0.124037	2.13441	0.290468	0.647898	0.423396	1.40825	0.587627	0.753003	0.855286	0.416852	0.258787	2.14387	0.449052	0.78484	0.701673	0.307224	0.764242	0.991033
0.290885	0.661585	0.126027	2.137	0.291081	0.667875	0.424711	1.41481	0.588333	0.76202	0.855676	0.421658	0.260785	2.14636	0.449787	0.794475	0.701926	0.313748	0.765168	0.997273
0.29143	0.679129	0.128019	2.13942	0.291713	0.688228	0.426032	1.42117	0.589047	0.771032	0.856071	0.426508	0.262786	2.1487	0.450532	0.80409	0.702145	0.319296	0.7661	1.00353
0.292072	0.699671	0.130013	2.14174	0.292363	0.708914	0.427359	1.42743	0.58977	0.78008	0.856471	0.431376	0.264789	2.15093	0.451286	0.813695	0.702329	0.323846	0.767038	1.00974
0.292733	0.720562	0.13201	2.14399	0.293033	0.729914	0.428692	1.43356	0.590501	0.789108	0.856875	0.436204	0.266794	2.15303	0.452048	0.823294	0.702476	0.327417	0.767982	1.01586
0.293415	0.741774	0.134008	2.14614	0.293723	0.751327	0.43003	1.43952	0.59124	0.79809	0.857284	0.441025	0.268801	2.155	0.45282	0.832928	0.702585	0.330203	0.768931	1.02194
0.294116	0.763367	0.136009	2.14817	0.294434	0.773093	0.431374	1.44542	0.591988	0.807048	0.857697	0.445907	0.27081	2.15683	0.4536	0.842543	0.702656	0.331958	0.769886	1.02804
0.294837	0.785333	0.138011	2.15017	0.295164	0.795219	0.432724	1.45116	0.592744	0.816032	0.858115	0.450764	0.27282	2.15855	0.45439	0.852147	0.702758	0.334324	0.770846	1.03407
0.295579	0.807705	0.140015	2.15209	0.295915	0.817781	0.434078	1.45674	0.593508	0.824955	0.858537	0.455571	0.274832	2.16018	0.455188	0.861783	0.70287	0.336916	0.771813	1.04006
0.296342	0.830536	0.142021	2.15389	0.296688	0.840817	0.435438	1.46224	0.594281	0.833921	0.858964	0.460424	0.276845	2.16169	0.455996	0.871399	0.703023	0.340544	0.772659	1.0453
0.297127	0.85378	0.144029	2.15564	0.297482	0.864274	0.436803	1.46759	0.595062	0.842872	0.859395	0.465295	0.27886	2.16303	0.456812	0.881004	0.703219	0.345174	0.773384	1.04969
0.297933	0.877488	0.146038	2.15731	0.298298	0.888197	0.438173	1.47287	0.595852	0.851778	0.859831	0.470132	0.280876	2.16428	0.457637	0.89064	0.70346	0.350661	0.773986	1.05334
0.298762	0.901719	0.148049	2.15892	0.299137	0.91261	0.439548	1.47803	0.596649	0.860699	0.860271	0.47497	0.282893	2.1655	0.458472	0.900256	0.703747	0.35715	0.774463	1.05629
0.299613	0.926396	0.150061	2.16042	0.299999	0.937487	0.440927	1.48303	0.597455	0.869591	0.860716	0.479813	0.284911	2.16658	0.459315	0.909898	0.704083	0.364582	0.774815	1.05828
0.300488	0.951588	0.152075	2.1619	0.300884	0.962926	0.442311	1.48795	0.59827	0.878505	0.861165	0.484664	0.28693	2.16752	0.460167	0.919516	0.704427	0.371997	0.775041	1.05961
0.301386	0.977331	0.15409	2.1633	0.301793	0.988939	0.4437	1.49275	0.599092	0.887356	0.861619	0.489533	0.28895	2.16836	0.461028	0.929123	0.704777	0.37944	0.775365	1.06164
0.302309	1.00361	0.156106	2.16462	0.302727	1.0155	0.445093	1.49749	0.599923	0.896213	0.862077	0.494364	0.290971	2.16915	0.461898	0.938796	0.705134	0.386824	0.775719	1.06363
0.303257	1.03044	0.158123	2.16594	0.303685	1.04258	0.44649	1.5021	0.600762	0.905072	0.86254	0.499191	0.292992	2.16983	0.462778	0.948431	0.705497	0.394178	0.776201	1.06648
0.304229	1.05788	0.160142	2.16715	0.30467	1.07026	0.447892	1.50656	0.60161	0.913897	0.862947	0.503447	0.295014	2.1704	0.463666	0.958045	0.705868	0.40159	0.776812	1.07011
0.305228	1.08592	0.162161	2.16831	0.30568	1.0986	0.449297	1.51099	0.602465	0.922703	0.863297	0.507044	0.297036	2.17093	0.464563	0.967687	0.706246	0.408958	0.777554	1.07438
0.306253	1.11459	0.164182	2.16943	0.306717	1.12749	0.450707	1.51533	0.603329	0.931501	0.863588	0.51003	0.299059	2.17135	0.465469	0.977341	0.70663	0.416341	0.778429	1.07944
0.307305	1.14383	0.166204	2.17051	0.307781	1.15699	0.452121	1.51951	0.604201	0.940295	0.863819	0.512359	0.301082	2.17163	0.466384	0.987002	0.707022	0.423695	0.779437	1.08514
0.308384	1.17368	0.168227	2.17149	0.308873	1.18719	0.453539	1.52362	0.605081	0.949049	0.86399	0.514089	0.303106	2.17188	0.467308	0.99663	0.70742	0.430997	0.780451	1.09085
