Sym0		Asym0		Sym1		Sym2		Sym3		Sym4		Sym5		Asym1		Asym2		Asym3		Asym4		Asym5	
387  Points		386  Points		387  Points		374  Points		367  Points		357  Points		147  Points		385  Points		381  Points		366  Points		176  Points		135  Points	
Freq (MHz)	Vgr (m/ms)	Freq (MHz)	Vgr (m/ms)	Freq (MHz)	Vgr (m/ms)	Freq (MHz)	Vgr (m/ms)	Freq (MHz)	Vgr (m/ms)	Freq (MHz)	Vgr (m/ms)	Freq (MHz)	Vgr (m/ms)	Freq (MHz)	Vgr (m/ms)	Freq (MHz)	Vgr (m/ms)	Freq (MHz)	Vgr (m/ms)	Freq (MHz)	Vgr (m/ms)	Freq (MHz)	Vgr (m/ms)
2.20227	2.6141	0.346111	0.113873	2.20064	2.61338	0.692236	0.114395	1.32342	-0.334092	1.38461	0.403406	2.07658	-0.171397	0.346222	0.237352	0.882343	-0.0983085	1.03839	0.175706	1.73054	-0.361412	1.76481	0.521878
2.19624	2.61274	0.346373	0.212311	2.19461	2.61204	0.6925	0.18313	1.32265	-0.482084	1.38554	0.56583	2.07619	-0.243865	0.34677	0.335143	0.882116	-0.15899	1.0388	0.256291	1.7297	-0.612756	1.76602	0.770313
2.19022	2.60998	0.34709	0.407943	2.18859	2.60925	0.693081	0.319755	1.3212	-0.757017	1.38722	0.869115	2.07546	-0.385828	0.347769	0.528981	0.88161	-0.278485	1.03957	0.415356	1.72771	-1.04635	1.76837	1.19701
2.1842	2.60717	0.348256	0.600426	2.18257	2.60639	0.693975	0.454137	1.31916	-0.987034	1.38955	1.12698	2.07441	-0.520852	0.349211	0.718756	0.880831	-0.393257	1.04071	0.569275	1.72487	-1.34782	1.77154	1.49487
2.17819	2.60427	0.349861	0.788372	2.17656	2.60345	0.695177	0.585353	1.31664	-1.17036	1.39242	1.33839	2.07305	-0.646981	0.351085	0.903188	0.879795	-0.501584	1.0422	0.716568	1.72149	-1.54184	1.77527	1.69414
2.17218	2.60125	0.351894	0.970464	2.17056	2.60042	0.696677	0.712654	1.31376	-1.3112	1.39573	1.50816	2.07142	-0.762862	0.353379	1.08111	0.878517	-0.60215	1.04402	0.855953	1.71776	-1.66285	1.77936	1.82811
2.16618	2.5982	0.35434	1.14568	2.16456	2.59736	0.698465	0.835346	1.31059	-1.41653	1.39938	1.64327	2.06953	-0.867841	0.356075	1.25158	0.877016	-0.693858	1.04615	0.986554	1.71381	-1.73722	1.7837	1.92056
2.16019	2.59505	0.357181	1.31316	2.15857	2.59417	0.700531	0.952848	1.30722	-1.49329	1.40331	1.75061	2.06742	-0.961637	0.359155	1.4138	0.875315	-0.776127	1.04857	1.10794	1.70974	-1.78187	1.78822	1.98644
2.15421	2.59174	0.3604	1.4722	2.15259	2.59087	0.702862	1.06466	1.3037	-1.54756	1.40746	1.8363	2.0651	-1.04435	0.362599	1.56723	0.873434	-0.848599	1.05126	1.21982	1.70559	-1.80716	1.79287	2.03487
2.14823	2.58841	0.363975	1.62224	2.14661	2.58749	0.705445	1.17051	1.30008	-1.58433	1.41178	1.90515	2.0626	-1.11638	0.366387	1.71149	0.871398	-0.911145	1.0542	1.32229	1.7014	-1.8193	1.79761	2.07144
2.14226	2.58499	0.367886	1.76297	2.14065	2.58402	0.708264	1.27015	1.29639	-1.60734	1.41625	1.96074	2.05994	-1.17842	0.370497	1.84635	0.86923	-0.963948	1.05737	1.41554	1.6972	-1.82218	1.80243	2.09967
2.1363	2.58143	0.372111	1.89426	2.13469	2.58046	0.711306	1.36337	1.29266	-1.61937	1.42083	2.00593	2.05716	-1.23116	0.374908	1.97163	0.86695	-1.00722	1.06073	1.49994	1.69299	-1.81834	1.8073	2.12173
2.13035	2.57777	0.376628	2.01601	2.12874	2.57678	0.714556	1.45014	1.28892	-1.62255	1.42551	2.04284	2.05426	-1.27534	0.379596	2.08743	0.864581	-1.04141	1.06429	1.57602	1.6888	-1.80936	1.81222	2.1391
2.1244	2.57402	0.381414	2.12825	2.1228	2.57301	0.717998	1.53051	1.28518	-1.61858	1.43026	2.07302	2.05127	-1.31169	0.384541	2.19379	0.862144	-1.06686	1.06801	1.64424	1.68464	-1.79637	1.81717	2.15283
2.11847	2.5702	0.386449	2.23115	2.11687	2.56912	0.721619	1.60452	1.28145	-1.6086	1.43507	2.09763	2.04821	-1.34097	0.38972	2.29085	0.859658	-1.08399	1.07188	1.70509	1.68051	-1.78006	1.82216	2.16358
2.11254	2.56621	0.391711	2.32481	2.11094	2.56509	0.725403	1.67221	1.27775	-1.59347	1.43994	2.11763	2.04508	-1.36385	0.395112	2.37892	0.857142	-1.09328	1.07588	1.75911	1.67643	-1.76091	1.82716	2.17183
2.10663	2.56211	0.397178	2.40953	2.10503	2.56099	0.729336	1.73375	1.2741	-1.57384	1.44485	2.13368	2.04191	-1.38091	0.400698	2.4583	0.854613	-1.09509	1.07999	1.80682	1.67239	-1.73932	1.83218	2.17792
2.10072	2.55795	0.40283	2.48551	2.09912	2.55681	0.733404	1.7893	1.27049	-1.55024	1.44979	2.14623	2.03871	-1.39268	0.405707	2.52063	0.852088	-1.08978	1.08421	1.84861	1.6684	-1.71555	1.83721	2.18206
2.09482	2.55364	0.408648	2.55295	2.09323	2.55248	0.737593	1.83902	1.26694	-1.52312	1.45475	2.1558	2.03549	-1.39966	0.41007	2.56871	0.849584	-1.07769	1.08852	1.88495	1.66447	-1.68975	1.84225	2.18447
2.08894	2.54921	0.414611	2.61209	2.08734	2.54799	0.74189	1.8831	1.26346	-1.4926	1.45973	2.16263	2.03225	-1.40228	0.413738	2.60493	0.847115	-1.05907	1.09291	1.91618	1.6606	-1.66203	1.84729	2.18526
2.08306	2.54467	0.420702	2.66313	2.08147	2.54341	0.746283	1.92167	1.26005	-1.45896	1.46473	2.16699	2.02902	-1.40085	0.416673	2.63145	0.844696	-1.03413	1.09737	1.94268	1.6568	-1.63252	1.85233	2.18451
2.07719	2.53998	0.426901	2.70634	2.07561	2.53872	0.750758	1.95486	1.25673	-1.42243	1.46973	2.16904	2.02579	-1.39573	0.418849	2.64979	0.842343	-1.00302	1.10188	1.96476	1.65307	-1.60126	1.85737	2.18234
2.07134	2.53521	0.433191	2.74177	2.06975	2.53387	0.755304	1.98287	1.25349	-1.38299	1.47474	2.16889	2.02258	-1.38716	0.42025	2.66092	0.840068	-0.96583	1.10643	1.98264	1.64941	-1.56825	1.8624	2.17873
2.06549	2.53029	0.439554	2.76958	2.06391	2.52893	0.759909	2.00585	1.25035	-1.34075	1.47974	2.16668	2.01939	-1.37538	0.422273	2.6761	0.837885	-0.922731	1.11103	1.99656	1.64583	-1.53352	1.86743	2.17371
2.05966	2.52521	0.445972	2.78989	2.05808	2.52383	0.764561	2.02383	1.2473	-1.2958	1.48474	2.16257	2.01623	-1.3606	0.424485	2.69162	0.835809	-0.873668	1.11565	2.00676	1.64234	-1.49708	1.87243	2.16733
2.05384	2.52003	0.452429	2.80274	2.05227	2.51859	0.769248	2.03702	1.24437	-1.2481	1.48972	2.15654	2.01311	-1.34292	0.427513	2.71106	0.833854	-0.818608	1.12029	2.01338	1.63892	-1.45893	1.87743	2.15955
2.04803	2.51473	0.458906	2.80823	2.04646	2.51324	0.773961	2.04552	1.24154	-1.19767	1.49469	2.14859	2.01003	-1.32248	0.431372	2.73303	0.832032	-0.757633	1.12494	2.0166	1.6356	-1.41902	1.8824	2.15037
2.04223	2.50925	0.465388	2.80626	2.04067	2.50775	0.778688	2.04935	1.23884	-1.14456	1.49964	2.13884	2.007	-1.29948	0.436078	2.7558	0.830357	-0.690615	1.12959	2.01652	1.63238	-1.37736	1.88735	2.13985
2.03645	2.50365	0.471857	2.79689	2.03489	2.50212	0.783419	2.04866	1.23626	-1.08865	1.50456	2.12732	2.00403	-1.27399	0.441644	2.77718	0.828845	-0.617443	1.13424	2.0132	1.62925	-1.33389	1.89228	2.12788
2.03068	2.49792	0.478295	2.78019	2.02912	2.49635	0.788142	2.04347	1.23381	-1.02995	1.50946	2.11394	2.00113	-1.246	0.448076	2.79492	0.827508	-0.538116	1.13888	2.00687	1.62622	-1.28863	1.89717	2.11441
2.02492	2.49205	0.484687	2.75597	2.02337	2.49044	0.792849	2.03389	1.23151	-0.968486	1.51432	2.09876	1.99828	-1.21559	0.454542	2.80536	0.826361	-0.452484	1.14351	1.99749	1.6233	-1.24153	1.90203	2.09957
2.01918	2.486	0.491013	2.72428	2.01763	2.48434	0.797528	2.02	1.22935	-0.904235	1.51914	2.0818	1.99552	-1.1829	0.461022	2.80838	0.82542	-0.360469	1.1481	1.98517	1.62049	-1.19252	1.90686	2.08321
2.01345	2.47985	0.497259	2.68515	2.0119	2.47814	0.802171	2.00174	1.22733	-0.837109	1.52392	2.06304	1.99283	-1.1479	0.467502	2.80404	0.824698	-0.261986	1.15267	1.96999	1.6178	-1.14161	1.91165	2.06529
2.00774	2.47355	0.503405	2.63853	2.00619	2.47183	0.806766	1.97929	1.22548	-0.767165	1.52866	2.04244	1.99022	-1.11065	0.473962	2.79223	0.824211	-0.157085	1.15719	1.95201	1.61522	-1.08877	1.91639	2.04586
2.00204	2.4671	0.509435	2.58455	2.0005	2.46536	0.811305	1.95277	1.22379	-0.694366	1.53335	2.02	1.9877	-1.07115	0.480387	2.77307	0.823973	-0.0459288	1.16168	1.93127	1.61277	-1.03393	1.92109	2.02479
1.99635	2.4605	0.515332	2.52332	1.99482	2.45871	0.815206	1.92633	1.22228	-0.618715	1.53798	1.99576	1.98528	-1.02943	0.48676	2.74647	0.823981	0.0560294	1.16611	1.90775	1.61045	-0.977127	1.92573	2.00214
1.99068	2.45375	0.521079	2.45498	1.98915	2.45193	0.818487	1.90147	1.22094	-0.540289	1.54256	1.9697	1.98295	-0.98555	0.493062	2.71232	0.824153	0.146657	1.17048	1.88164	1.60826	-0.91838	1.93033	1.97785
1.98503	2.44692	0.526661	2.37983	1.9835	2.44503	0.821167	1.87919	1.21978	-0.459095	1.54707	1.94181	1.98073	-0.939462	0.499276	2.67075	0.824415	0.224128	1.17479	1.85295	1.60621	-0.857575	1.93486	1.95184
1.97939	2.43992	0.532062	2.2983	1.97787	2.43798	0.823263	1.86056	1.21882	-0.375224	1.55152	1.91205	1.97861	-0.891231	0.505387	2.62173	0.824701	0.286921	1.17903	1.82171	1.60431	-0.794779	1.93933	1.92413
1.97377	2.43272	0.537267	2.21083	1.97225	2.43076	0.824791	1.84619	1.21805	-0.28878	1.5559	1.8805	1.97661	-0.840913	0.511375	2.56533	0.824957	0.334015	1.1832	1.78801	1.60254	-0.730051	1.94374	1.89471
1.96816	2.42543	0.542264	2.11798	1.96665	2.42342	0.825762	1.83667	1.21749	-0.1999	1.5602	1.84713	1.97473	-0.788469	0.517225	2.50178	0.825141	0.364609	1.18728	1.75197	1.60094	-0.663364	1.94808	1.86356
1.96258	2.41802	0.547041	2.02056	1.96107	2.41599	0.827149	1.82283	1.21713	-0.108714	1.56442	1.81197	1.97298	-0.733972	0.52292	2.43119	0.825434	0.409016	1.19128	1.71364	1.59948	-0.594736	1.95234	1.83063
1.957	2.41047	0.551589	1.91938	1.9555	2.4084	0.828645	1.80729	1.21699	-0.0154343	1.56856	1.77512	1.97135	-0.677494	0.528444	2.35389	0.825791	0.457911	1.19519	1.67317	1.59819	-0.524276	1.95653	1.79597
1.95145	2.40276	0.555899	1.81532	1.94995	2.40067	0.830658	1.78524	1.21706	0.0797607	1.57261	1.73657	1.96985	-0.619029	0.533783	2.27035	0.826342	0.525537	1.199	1.63067	1.59706	-0.452057	1.96063	1.75954
1.94592	2.39495	0.559966	1.70938	1.94442	2.39284	0.833169	1.75609	1.21735	0.17662	1.57657	1.69638	1.96849	-0.558641	0.538922	2.18108	0.827148	0.612653	1.20271	1.58626	1.59611	-0.378152	1.96465	1.72139
1.9404	2.38704	0.563787	1.60259	1.93891	2.38486	0.836148	1.71916	1.21787	0.274759	1.58044	1.65461	1.96727	-0.49646	0.543848	2.08667	0.828289	0.720167	1.20632	1.54021	1.59532	-0.302706	1.96857	1.68157
1.9349	2.37896	0.567362	1.49609	1.93342	2.37674	0.83956	1.67355	1.21862	0.373916	1.58421	1.61143	1.9662	-0.432522	0.548551	1.98791	0.829865	0.848864	1.20982	1.49265	1.59471	-0.225861	1.97241	1.64009
1.92942	2.3708	0.570691	1.39082	1.92794	2.36857	0.843359	1.61823	1.2196	0.473794	1.58788	1.56695	1.96528	-0.366976	0.553022	1.88568	0.831996	0.999273	1.21321	1.44374	1.59428	-0.147758	1.97614	1.59704
1.92396	2.36252	0.57378	1.28782	1.92249	2.36027	0.847028	1.55996	1.22081	0.57394	1.59144	1.52121	1.9645	-0.299971	0.557253	1.78088	0.834477	1.15182	1.21648	1.39374	1.59403	-0.0685279	1.97978	1.55247
1.91852	2.35417	0.576634	1.18802	1.91705	2.35188	0.850558	1.49896	1.22225	0.674037	1.5949	1.4744	1.96389	-0.231586	0.56124	1.67458	0.837312	1.30559	1.21964	1.34295	1.59396	0.0116372	1.98331	1.50647
1.9131	2.34568	0.579262	1.09212	1.91163	2.34338	0.853945	1.43558	1.22392	0.773669	1.59825	1.42671	1.96344	-0.161978	0.564981	1.56777	0.840502	1.45941	1.22268	1.29163	1.59408	0.092428	1.98673	1.45914
1.90769	2.33713	0.581674	1.00095	1.90623	2.33481	0.857183	1.37001	1.22556	0.859815	1.60148	1.37834	1.96314	-0.0913179	0.568475	1.46153	0.844046	1.61227	1.22523	1.24672	1.59439	0.173663	1.99004	1.4107
1.90231	2.32851	0.583882	0.915005	1.90086	2.32615	0.860268	1.30258	1.2271	0.932556	1.60461	1.32945	1.96301	-0.019821	0.571726	1.35688	0.847942	1.76316	1.22734	1.20845	1.59488	0.255127	1.99324	1.36122
1.89695	2.31977	0.585897	0.834669	1.8955	2.3174	0.863194	1.23375	1.22846	0.992025	1.60762	1.28028	1.96305	0.0523236	0.574737	1.25486	0.852183	1.911	1.22903	1.17683	1.59556	0.336537	1.99632	1.31087
1.89161	2.31101	0.587733	0.760348	1.89016	2.30863	0.865961	1.16381	1.2296	1.03856	1.61051	1.23111	1.96326	0.124909	0.577517	1.15624	0.856761	2.05483	1.23033	1.15205	1.59643	0.417618	1.99929	1.25992
1.88628	2.3022	0.589406	0.692127	1.88485	2.29979	0.868565	1.09314	1.23047	1.07265	1.6133	1.18211	1.96363	0.197716	0.580073	1.06182	0.861666	2.19376	1.23128	1.13379	1.59749	0.498041	2.00214	1.20849
1.88098	2.29329	0.590927	0.630098	1.87955	2.2909	0.871006	1.02217	1.23104	1.09423	1.61597	1.13364	1.96417	0.270454	0.582417	0.972306	0.866885	2.32706	1.23187	1.12222	1.59873	0.577589	2.00486	1.15681
1.8757	2.28435	0.592313	0.574229	1.87427	2.28191	0.873282	0.95127	1.23188	1.12494	1.61853	1.08592	1.96488	0.342907	0.58456	0.888147	0.872404	2.45413	1.23272	1.10577	1.60016	0.655973	2.00747	1.10516
1.87044	2.27539	0.593577	0.524454	1.86902	2.27294	0.875396	0.880811	1.23282	1.15817	1.62098	1.03924	1.96575	0.414864	0.586515	0.809739	0.87821	2.57446	1.23362	1.08787	1.60176	0.732906	2.00996	1.05379
1.8652	2.2664	0.594734	0.48064	1.86379	2.26401	0.877347	0.811158	1.23415	1.20275	1.62333	0.993944	1.96679	0.48605	0.588297	0.737393	0.884285	2.68755	1.23482	1.0639	1.60354	0.80811	2.01234	1.00297
1.85998	2.25745	0.595795	0.442452	1.85857	2.25501	0.879139	0.742677	1.23589	1.25815	1.62557	0.950295	1.96799	0.556204	0.589918	0.671191	0.890612	2.79316	1.23631	1.03397	1.60549	0.881321	2.01459	0.952912
1.85478	2.24847	0.596776	0.409729	1.85338	2.24603	0.880774	0.675697	1.2381	1.32375	1.62771	0.908553	1.96936	0.625027	0.591394	0.611173	0.897175	2.8912	1.23805	0.998587	1.60761	0.952303	2.01673	0.903912
1.8496	2.23946	0.597686	0.38222	1.84821	2.23707	0.882257	0.61053	1.24084	1.39853	1.62976	0.869088	1.97088	0.692361	0.592739	0.557361	0.903955	2.98145	1.24002	0.958462	1.60988	1.02073	2.01876	0.856301
1.84445	2.23052	0.598539	0.359577	1.84306	2.2281	0.883592	0.547404	1.24417	1.48109	1.63172	0.832127	1.97255	0.757962	0.593966	0.509544	0.910934	3.06386	1.24218	0.914452	1.61232	1.08647	2.02069	0.810299
1.83931	2.22163	0.599346	0.341391	1.83792	2.21922	0.884783	0.486654	1.24768	1.56005	1.6336	0.797975	1.97438	0.821562	0.59509	0.467544	0.918094	3.13842	1.24424	0.873038	1.6149	1.14933	2.0225	0.766121
1.83419	2.21281	0.600018	0.329016	1.83281	2.2104	0.885838	0.428411	1.25137	1.63509	1.6354	0.766804	1.97634	0.88299	0.596124	0.431201	0.925417	3.20522	1.24621	0.83468	1.61762	1.20912	2.02422	0.724128
1.8291	2.20401	0.600574	0.320872	1.82772	2.20163	0.88676	0.372812	1.25522	1.7059	1.63692	0.742316	1.97845	0.942052	0.59708	0.400211	0.932885	3.26429	1.24809	0.799753	1.6201	1.25864	2.02585	0.684527
1.82402	2.19528	0.601025	0.315847	1.82265	2.19296	0.887558	0.32011	1.25924	1.77232	1.63818	0.72351	1.98069	0.998579	0.597971	0.37428	0.940481	3.31565	1.2499	0.768704	1.6223	1.29882	2.02738	0.647439
1.81897	2.18669	0.601377	0.312724	1.8176	2.18439	0.888238	0.270358	1.2634	1.83413	1.63919	0.709536	1.98306	1.05238	0.598807	0.353147	0.948186	3.35932	1.25164	0.741973	1.62416	1.33063	2.02883	0.613253
1.81393	2.17823	0.601634	0.31111	1.81257	2.17598	0.888806	0.223547	1.2677	1.89122	1.63998	0.699582	1.98555	1.10337	0.5996	0.336502	0.955983	3.39532	1.25332	0.720038	1.62566	1.35475	2.03021	0.582089
1.80892	2.16994	0.601798	0.310381	1.80756	2.16772	0.889269	0.179816	1.27213	1.94346	1.64055	0.692752	1.98815	1.15136	0.60036	0.324114	0.963855	3.42361	1.25496	0.703394	1.62679	1.37195	2.03152	0.554038
1.80392	2.16178	0.602033	0.309421	1.80257	2.15962	0.889635	0.139164	1.27667	1.99071	1.64092	0.688622	1.99086	1.19629	0.601096	0.315577	0.971783	3.44417	1.25657	0.692399	1.62751	1.38275	2.03277	0.529356
1.79894	2.15382	0.602287	0.308872	1.7976	2.15171	0.889911	0.101553	1.28132	2.03294	1.64144	0.683201	1.99367	1.23812	0.601816	0.310686	0.979749	3.4569	1.25816	0.687561	1.62857	1.39791	2.03396	0.50819
1.79398	2.14616	0.602633	0.308833	1.79264	2.14408	0.890104	0.0670002	1.28605	2.07002	1.642	0.677948	1.99657	1.27673	0.60253	0.309192	0.987736	3.46158	1.25974	0.68939	1.62973	1.41384	2.03511	0.490614
1.78904	2.13869	0.603071	0.309789	1.7877	2.13674	0.890221	0.035405	1.29087	2.10189	1.64275	0.671591	1.99956	1.31204	0.603243	0.310716	0.995724	3.45806	1.26134	0.698434	1.63132	1.43467	2.03623	0.476702
1.78411	2.13152	0.603604	0.312468	1.78278	2.12967	0.890268	0.00679003	1.29575	2.12848	1.6437	0.664992	2.00263	1.34401	0.603964	0.315176	1.00369	3.44616	1.26296	0.715188	1.63338	1.45981	2.03731	0.466531
1.7792	2.12479	0.604236	0.317503	1.77787	2.123	0.890252	-0.0190165	1.30069	2.14983	1.64483	0.659273	2.00577	1.3727	0.604698	0.322277	1.01163	3.42552	1.26464	0.740154	1.6359	1.48826	2.03838	0.460251
1.7743	2.11844	0.604977	0.325558	1.77298	2.11677	0.89018	-0.0420271	1.30567	2.16586	1.64615	0.655727	2.00896	1.39809	0.605451	0.33176	1.0195	3.39579	1.26638	0.773914	1.63893	1.51891	2.03944	0.457798
1.76942	2.11254	0.605738	0.335884	1.76811	2.11104	0.890058	-0.0623582	1.31069	2.17647	1.64767	0.655995	2.01222	1.42016	0.606229	0.343496	1.0273	3.35669	1.26821	0.816978	1.64247	1.55048	2.04049	0.45919
1.76456	2.10719	0.606527	0.348408	1.76324	2.10589	0.889892	-0.0801042	1.31572	2.18177	1.64918	0.661	2.01509	1.43677	0.607036	0.357275	1.03499	3.30783	1.27015	0.869821	1.64608	1.57825	2.04156	0.464465
1.7597	2.1025	0.607346	0.36291	1.75839	2.10137	0.889688	-0.0953494	1.32075	2.18175	1.65072	0.6709	2.01757	1.44899	0.607878	0.37288	1.04256	3.24888	1.27222	0.9329	1.64975	1.60205	2.0425	0.472149
1.75485	2.0986	0.608201	0.379169	1.75354	2.09768	0.889452	-0.108209	1.32579	2.17629	1.65228	0.685737	2.01963	1.45773	0.608757	0.390204	1.04999	3.17955	1.27446	1.00666	1.65348	1.62187	2.04331	0.480915
1.75001	2.09557	0.609096	0.397077	1.74871	2.09491	0.889189	-0.118777	1.3308	2.16546	1.65388	0.705681	2.02126	1.4638	0.609678	0.409083	1.05724	3.09966	1.27687	1.0913	1.65724	1.63774	2.044	0.489858
1.74518	2.09355	0.610034	0.416468	1.74388	2.09319	0.888904	-0.12721	1.33578	2.14939	1.65553	0.73074	2.02247	1.46779	0.610645	0.429326	1.06429	3.00904	1.27949	1.1869	1.66103	1.64971	2.04455	0.49795
1.74035	2.09272	0.611018	0.437223	1.73905	2.09274	0.888602	-0.133514	1.34072	2.12799	1.65725	0.760921	2.02325	1.47004	0.611659	0.450836	1.07112	2.90784	1.28235	1.29344	1.66485	1.65778	2.04497	0.504406
1.73552	2.09333	0.612052	0.459209	1.73422	2.09381	0.888288	-0.137838	1.3456	2.10132	1.65905	0.79619	2.02436	1.47291	0.612725	0.47353	1.07771	2.79641	1.28546	1.41051	1.66868	1.66196	2.04523	0.50879
1.73069	2.09565	0.613137	0.482287	1.72938	2.09663	0.887966	-0.140293	1.35041	2.06953	1.66093	0.836456	2.02558	1.47573	0.613845	0.497292	1.08403	2.67522	1.28886	1.53748	1.67252	1.66229	2.04562	0.515501
1.72585	2.09992	0.614277	0.506388	1.72454	2.10145	0.88764	-0.140971	1.35515	2.03276	1.66291	0.881711	2.02723	1.47893	0.61502	0.521953	1.09005	2.54515	1.29256	1.67348	1.67636	1.65894	2.04605	0.523355
1.721	2.10649	0.615474	0.531365	1.71969	2.10867	0.887315	-0.139955	1.35979	1.99108	1.665	0.931768	2.02933	1.48193	0.616253	0.547431	1.09577	2.40746	1.29658	1.81721	1.68018	1.65192	2.04664	0.534707
1.71613	2.11575	0.616729	0.557147	1.71481	2.11873	0.886994	-0.137286	1.36434	1.94465	1.66721	0.986496	2.03187	1.48401	0.617546	0.573683	1.10116	2.26358	1.30094	1.96708	1.68398	1.64131	2.04741	0.550277
1.71124	2.12803	0.618045	0.583661	1.70991	2.13195	0.886682	-0.133132	1.36877	1.89375	1.66955	1.04568	2.03486	1.48434	0.618901	0.600578	1.10622	2.11514	1.30566	2.12137	1.68775	1.62721	2.04837	0.570928
1.70631	2.14375	0.619423	0.610798	1.70497	2.14866	0.88638	-0.12754	1.37308	1.83859	1.67203	1.10901	2.03828	1.48202	0.620318	0.628052	1.11092	1.96402	1.31073	2.27817	1.69149	1.60976	2.04954	0.597531
1.70135	2.16331	0.620864	0.638465	1.69999	2.16925	0.886093	-0.120532	1.37725	1.77949	1.67467	1.17623	2.0417	1.47687	0.621799	0.656071	1.11528	1.81228	1.31617	2.43538	1.69518	1.58906	2.05096	0.631157
1.69633	2.18683	0.622369	0.666617	1.69496	2.19389	0.885824	-0.112304	1.38129	1.71676	1.67746	1.24697	2.0451	1.46902	0.623346	0.684509	1.11929	1.66185	1.32197	2.59107	1.69882	1.56531	2.05246	0.667892
1.69125	2.21431	0.62394	0.695232	1.68987	2.22244	0.885575	-0.102843	1.38518	1.65071	1.68042	1.32079	2.04848	1.45858	0.624958	0.71334	1.12295	1.51453	1.32813	2.74348	1.7024	1.53868	2.05404	0.707646
1.68611	2.24554	0.625578	0.724188	1.68471	2.25456	0.885349	-0.0921803	1.38891	1.5818	1.68356	1.39737	2.05183	1.44559	0.626637	0.742477	1.12628	1.37195	1.33463	2.89091	1.70592	1.50928	2.05572	0.750265
1.68089	2.27988	0.627282	0.753424	1.67946	2.28958	0.885149	-0.0804767	1.39248	1.51046	1.68687	1.47616	2.05515	1.43024	0.628384	0.771877	1.12928	1.23551	1.34147	3.03197	1.70937	1.47737	2.0575	0.795561
