Sym0		Asym0		Sym1		Sym2		Sym3		Asym1		Asym2		Asym3	
457  Points		491  Points		163  Points		127  Points		108  Points		312  Points		139  Points		111  Points	
Freq (MHz)	Vph (m/ms)	Freq (MHz)	Vph (m/ms)	Freq (MHz)	Vph (m/ms)	Freq (MHz)	Vph (m/ms)	Freq (MHz)	Vph (m/ms)	Freq (MHz)	Vph (m/ms)	Freq (MHz)	Vph (m/ms)	Freq (MHz)	Vph (m/ms)
0.00576132	8.16029	0.000748703	0.296103	0.279525	671.844	0.519931	913.251	0.55902	2720.46	0.139777	457.793	0.41931	504.266	0.698778	1694.52
0.013363	8.15953	0.00138886	0.401379	0.279684	207.519	0.51999	346.426	0.559096	491.65	0.140131	113.281	0.419476	237.903	0.698844	519.946
0.0209615	8.15809	0.0022105	0.503312	0.280009	122.841	0.520104	213.796	0.559278	270.329	0.140909	64.9734	0.419761	155.76	0.69898	307.141
0.0285552	8.15606	0.00320092	0.601269	0.280501	87.3523	0.520273	154.641	0.559567	186.487	0.142102	45.8331	0.420164	115.856	0.699186	217.987
0.0361422	8.15336	0.00434586	0.694748	0.281157	67.8659	0.520497	121.156	0.55996	142.401	0.143697	35.6381	0.420685	92.2898	0.699461	168.986
0.0437208	8.15003	0.00563048	0.783426	0.281978	55.5672	0.520777	99.617	0.560458	115.227	0.145678	29.3481	0.421324	76.7439	0.699806	138.006
0.051289	8.14604	0.00703983	0.867114	0.28296	47.1111	0.521115	84.6036	0.56106	96.8069	0.148027	25.1084	0.42208	65.7272	0.700221	116.654
0.0588451	8.1414	0.00855929	0.945738	0.284101	40.9491	0.521511	73.5436	0.561764	83.5045	0.150722	22.0767	0.422952	57.518	0.700705	101.05
0.066387	8.13608	0.0101749	1.01932	0.2854	36.2661	0.521968	65.0599	0.562571	73.4518	0.153743	19.815	0.42394	51.169	0.701259	89.1513
0.0739128	8.13008	0.011874	1.08798	0.286853	32.592	0.522486	58.3485	0.563479	65.5914	0.157066	18.0731	0.425042	46.1161	0.701881	79.7807
0.0814203	8.12337	0.0136446	1.15188	0.288457	29.637	0.523068	52.9085	0.564486	59.2796	0.160671	16.6978	0.426257	42.0021	0.702572	72.2118
0.0889074	8.11594	0.0154764	1.21125	0.290209	27.2121	0.523716	48.4117	0.565592	54.1023	0.164536	15.5899	0.427585	38.5901	0.703332	65.9723
0.096372	8.10778	0.01736	1.26634	0.292105	25.1893	0.524431	44.6337	0.566795	49.7808	0.16864	14.6826	0.429023	35.7166	0.70416	60.7416
0.103812	8.09886	0.0192873	1.31739	0.294142	23.4786	0.525216	41.4164	0.568095	46.1208	0.172965	13.9293	0.430571	33.2653	0.705056	56.2946
0.111224	8.08916	0.0212512	1.36469	0.296317	22.015	0.526073	38.6447	0.569488	42.9828	0.177492	13.2962	0.432227	31.1509	0.70602	52.4684
0.118606	8.07865	0.0232457	1.40849	0.298624	20.7501	0.527004	36.2333	0.570975	40.2637	0.182204	12.7587	0.43399	29.3099	0.707051	49.1424
0.125956	8.06731	0.0252654	1.44907	0.301062	19.6475	0.528011	34.1171	0.572554	37.8859	0.187086	12.2982	0.435857	27.6935	0.708149	46.2253
0.13327	8.0551	0.0270426	1.48198	0.303624	18.679	0.529097	32.246	0.574224	35.7899	0.192124	11.9005	0.437829	26.2639	0.709314	43.6469
0.140546	8.042	0.0285681	1.50837	0.306308	17.8226	0.530265	30.5807	0.575983	33.9293	0.197303	11.5545	0.439902	24.9915	0.710544	41.3519
0.147781	8.02797	0.0298359	1.5291	0.309111	17.0607	0.531516	29.0898	0.57783	32.2671	0.201923	11.2883	0.442074	23.8524	0.711841	39.2966
0.15497	8.01297	0.0308419	1.54483	0.312027	16.3794	0.532852	27.7481	0.579763	30.774	0.205933	11.0837	0.444346	22.8274	0.713203	37.4458
0.162111	7.99696	0.0315834	1.55604	0.315054	15.7672	0.534278	26.5349	0.581783	29.4259	0.209296	10.928	0.446713	21.9008	0.714629	35.7709
0.1692	7.97991	0.0320588	1.56306	0.318189	15.2146	0.535794	25.4333	0.583886	28.2033	0.211983	10.8129	0.449175	21.0595	0.71612	34.2483
0.176233	7.96175	0.032743	1.57294	0.321427	14.714	0.537403	24.4293	0.586073	27.0898	0.213974	10.7323	0.45173	20.2929	0.717675	32.8585
0.183206	7.94246	0.0334879	1.58342	0.324767	14.2587	0.539108	23.511	0.588341	26.0718	0.215255	10.6824	0.454375	19.5917	0.719293	31.5853
0.190115	7.92197	0.0345028	1.59723	0.328206	13.8434	0.54091	22.6686	0.590691	25.1381	0.217106	10.613	0.457109	18.9484	0.720974	30.4148
0.196954	7.90024	0.035789	1.61401	0.331741	13.4634	0.542813	21.8935	0.593121	24.2788	0.219128	10.5404	0.45993	18.3564	0.722718	29.3353
0.203719	7.87722	0.0373479	1.63333	0.33537	13.1148	0.544818	21.1785	0.595629	23.4858	0.221897	10.4462	0.462836	17.8101	0.724523	28.3369
0.210405	7.85284	0.0391806	1.65473	0.339092	12.7942	0.546926	20.5174	0.598216	22.7519	0.225427	10.334	0.465825	17.3047	0.726389	27.4111
0.217007	7.82706	0.041288	1.67771	0.342906	12.4988	0.549142	19.9047	0.600879	22.0711	0.229738	10.2077	0.468895	16.836	0.728315	26.5503
0.223519	7.79983	0.0433989	1.69916	0.34681	12.2259	0.551465	19.336	0.603619	21.4381	0.234847	10.0714	0.472044	16.4004	0.730302	25.7482
0.229935	7.77108	0.0455124	1.71919	0.350804	11.9734	0.553898	18.8069	0.606434	20.8482	0.240775	9.9289	0.47527	15.9948	0.732348	24.9992
0.23625	7.74077	0.0476277	1.73793	0.354888	11.7395	0.556442	18.3139	0.609324	20.2974	0.246765	9.79944	0.478571	15.6162	0.734453	24.2982
0.242459	7.70886	0.0497441	1.75548	0.358521	11.5495	0.559098	17.8539	0.612288	19.7822	0.252813	9.6814	0.481946	15.2623	0.736616	23.6411
0.248554	7.6753	0.0518613	1.77194	0.361671	11.3968	0.561868	17.4239	0.615325	19.2994	0.258912	9.5734	0.485392	14.9309	0.738836	23.0239
0.254531	7.64006	0.0539788	1.78738	0.364314	11.2767	0.564753	17.0216	0.618435	18.8462	0.265058	9.47424	0.488908	14.6201	0.741114	22.4432
0.260384	7.60311	0.0560962	1.80191	0.366428	11.1855	0.567753	16.6446	0.621617	18.4202	0.271244	9.3829	0.492492	14.3281	0.743447	21.8961
0.266107	7.56443	0.0582132	1.81558	0.367996	11.1204	0.570869	16.291	0.62487	18.0191	0.277468	9.29851	0.496142	14.0533	0.745836	21.3798
0.271696	7.52403	0.0603298	1.82846	0.369006	11.0796	0.5741	15.9589	0.628195	17.641	0.283724	9.22028	0.499856	13.7945	0.74828	20.8919
0.277145	7.4819	0.0624458	1.84061	0.370466	11.0222	0.577447	15.6467	0.631592	17.2842	0.290009	9.14756	0.503634	13.5503	0.750778	20.4302
0.282452	7.43808	0.0645609	1.85209	0.372064	10.9612	0.580909	15.3529	0.635058	16.947	0.296319	9.07976	0.507472	13.3197	0.75333	19.9927
0.287612	7.39259	0.0666752	1.86295	0.374257	10.8807	0.584486	15.0762	0.638596	16.6279	0.302651	9.01636	0.51137	13.1016	0.755934	19.5778
0.292624	7.34549	0.0687886	1.87324	0.377061	10.7828	0.588176	14.8153	0.642204	16.3258	0.309	8.95691	0.515326	12.8952	0.758591	19.1837
0.297484	7.29684	0.070901	1.88299	0.380499	10.67	0.591978	14.5692	0.645883	16.0395	0.315365	8.90101	0.519338	12.6995	0.761299	18.809
0.302193	7.24673	0.0730125	1.89224	0.384598	10.5448	0.595891	14.3367	0.649633	15.7678	0.321741	8.8483	0.523406	12.5139	0.764059	18.4524
0.30675	7.19524	0.0751229	1.90104	0.389391	10.4103	0.599911	14.117	0.653453	15.5098	0.328127	8.79846	0.527527	12.3376	0.766868	18.1127
0.311155	7.14248	0.0772323	1.9094	0.394278	10.2848	0.604038	13.9092	0.657345	15.2646	0.334518	8.75122	0.531701	12.17	0.769727	17.7888
0.315411	7.08857	0.0793407	1.91736	0.399259	10.1676	0.608267	13.7124	0.661309	15.0314	0.340913	8.70632	0.535927	12.0106	0.772635	17.4796
0.319519	7.03362	0.0814482	1.92495	0.404335	10.0582	0.612596	13.5259	0.665345	14.8095	0.34731	8.66353	0.539649	11.8779	0.775591	17.1843
0.323482	6.97775	0.0835547	1.93219	0.409504	9.95606	0.617022	13.349	0.669454	14.5982	0.353704	8.62264	0.542852	11.7691	0.778594	16.9019
0.327304	6.9211	0.0856603	1.9391	0.414764	9.86059	0.621541	13.1811	0.673638	14.397	0.360095	8.58348	0.545521	11.682	0.781645	16.6318
0.330989	6.86379	0.0877649	1.94571	0.420114	9.77135	0.626149	13.0215	0.677896	14.2051	0.366479	8.54587	0.547644	11.6149	0.784741	16.3731
0.334541	6.80595	0.0898688	1.95203	0.425552	9.68787	0.630842	12.8697	0.682231	14.0222	0.372855	8.50966	0.549212	11.5665	0.787883	16.1251
0.337965	6.74771	0.0919717	1.95808	0.431073	9.60974	0.635615	12.7252	0.686643	13.8477	0.37922	8.47471	0.550219	11.536	0.79107	15.8874
0.341266	6.68918	0.0940738	1.96388	0.436675	9.53655	0.640464	12.5875	0.691134	13.6812	0.385571	8.44091	0.55167	11.4927	0.794301	15.6593
0.344448	6.63047	0.0961751	1.96944	0.442354	9.46793	0.645383	12.4561	0.695705	13.5223	0.391907	8.40812	0.553253	11.4463	0.797576	15.4403
0.347518	6.5717	0.0982758	1.97478	0.448105	9.40351	0.650367	12.3306	0.700359	13.3706	0.398226	8.37625	0.555416	11.3845	0.800894	15.2298
0.35048	6.51296	0.100376	1.97991	0.453925	9.34297	0.655412	12.2105	0.705097	13.2258	0.404525	8.3452	0.558166	11.3082	0.804254	15.0275
0.353339	6.45435	0.102475	1.98484	0.459809	9.28599	0.659853	12.1101	0.70992	13.0876	0.410802	8.31488	0.561515	11.2187	0.807656	14.8328
0.356101	6.39595	0.104573	1.98958	0.465751	9.23229	0.663669	12.0274	0.714831	12.9556	0.417055	8.28521	0.565474	11.1175	0.811099	14.6454
0.358771	6.33784	0.106671	1.99414	0.471748	9.1816	0.666844	11.9608	0.719832	12.8296	0.423283	8.2561	0.570059	11.006	0.814582	14.465
0.361353	6.28009	0.108768	1.99854	0.477795	9.13366	0.669366	11.9094	0.724924	12.7093	0.429482	8.2275	0.574686	10.8993	0.818106	14.2911
0.363852	6.22276	0.110865	2.00278	0.483887	9.08824	0.671227	11.8722	0.730109	12.5945	0.435651	8.19934	0.579356	10.7971	0.821669	14.1235
0.366272	6.16591	0.112961	2.00687	0.490019	9.04514	0.67242	11.8487	0.735389	12.4849	0.441788	8.17155	0.584067	10.6991	0.82527	13.9618
0.368618	6.10958	0.115057	2.01081	0.496188	9.00415	0.674138	11.8152	0.740766	12.3804	0.44789	8.14408	0.588819	10.6052	0.82891	13.8058
0.370895	6.05382	0.117152	2.01462	0.502388	8.9651	0.676011	11.7794	0.745531	12.2932	0.453957	8.11688	0.593612	10.515	0.832588	13.6551
0.373105	5.99868	0.119246	2.01831	0.508617	8.92782	0.678564	11.7314	0.749652	12.2217	0.459985	8.0899	0.598446	10.4285	0.836302	13.5096
0.375253	5.94418	0.121341	2.02187	0.51487	8.89215	0.681804	11.6719	0.753102	12.1644	0.465973	8.06309	0.603318	10.3455	0.840053	13.369
0.377343	5.89034	0.123434	2.02531	0.521144	8.85797	0.685735	11.6017	0.755855	12.1203	0.47192	8.03642	0.608231	10.2657	0.843841	13.2331
0.379377	5.8372	0.125527	2.02865	0.527435	8.82514	0.690364	11.5218	0.757895	12.0885	0.477822	8.00985	0.613181	10.189	0.847663	13.1016
0.381359	5.78477	0.12762	2.03187	0.533739	8.79355	0.695694	11.4329	0.759208	12.0684	0.483678	7.98333	0.618171	10.1153	0.851521	12.9744
0.383292	5.73307	0.129713	2.035	0.540055	8.76309	0.70104	11.3471	0.761103	12.04	0.489487	7.95684	0.623199	10.0445	0.855413	12.8512
0.385179	5.68211	0.131805	2.03803	0.546379	8.73367	0.706398	11.2639	0.763176	12.0095	0.495246	7.93036	0.628264	9.97632	0.859339	12.732
0.387023	5.6319	0.133897	2.04097	0.552709	8.7052	0.711763	11.1833	0.766015	11.969	0.500954	7.90384	0.633368	9.91073	0.862788	12.6312
0.388826	5.58245	0.135988	2.04383	0.559041	8.67759	0.717134	11.1051	0.769639	11.919	0.506609	7.87726	0.638508	9.84759	0.865748	12.5474
0.39059	5.53376	0.138079	2.04659	0.565374	8.65078	0.722508	11.0292	0.774072	11.8606	0.512209	7.85062	0.643685	9.78681	0.868209	12.4795
0.392319	5.48584	0.14017	2.04928	0.571705	8.6247	0.727881	10.9554	0.779342	11.7946	0.517754	7.82387	0.648899	9.72827	0.870164	12.4268
0.394014	5.43868	0.14226	2.0519	0.578032	8.59929	0.733253	10.8837	0.785481	11.7222	0.523241	7.79702	0.654148	9.67188	0.871606	12.3885
0.395676	5.39229	0.14435	2.05444	0.584354	8.57448	0.738622	10.8138	0.791716	11.6532	0.528669	7.77003	0.659434	9.61754	0.872531	12.3642
0.397309	5.34665	0.14644	2.0569	0.590667	8.55024	0.743987	10.7458	0.798046	11.5875	0.534038	7.7429	0.664754	9.56516	0.873864	12.3296
0.398709	5.3075	0.14853	2.05931	0.596972	8.5265	0.749348	10.6795	0.804468	11.5248	0.539345	7.71562	0.670109	9.51466	0.875317	12.2924
0.399887	5.27458	0.150619	2.06164	0.603265	8.50323	0.754705	10.6149	0.81098	11.4651	0.544589	7.68818	0.675498	9.46595	0.877299	12.2424
0.40085	5.24767	0.152708	2.06392	0.609545	8.48039	0.760057	10.5519	0.81758	11.4081	0.54977	7.66056	0.680921	9.41897	0.879816	12.1803
0.401605	5.22659	0.154797	2.06613	0.615812	8.45793	0.765405	10.4905	0.824265	11.3538	0.554887	7.63277	0.686376	9.37363	0.882876	12.1066
0.402157	5.21121	0.156886	2.06829	0.622062	8.43583	0.77075	10.4305	0.831032	11.302	0.559939	7.6048	0.691864	9.32986	0.886487	12.0223
0.402508	5.20141	0.158974	2.07039	0.628296	8.41405	0.776092	10.372	0.837877	11.2525	0.564926	7.57665	0.697383	9.28759	0.89066	11.9282
0.403012	5.18739	0.161062	2.07244	0.63451	8.39257	0.781432	10.315	0.844798	11.2052	0.569846	7.54832	0.702932	9.24676	0.894862	11.8368
0.403556	5.17224	0.16315	2.07444	0.640706	8.37135	0.786771	10.2593	0.851792	11.1601	0.5747	7.5198	0.708511	9.2073	0.899094	11.748
0.404292	5.15179	0.165238	2.07639	0.64688	8.35037	0.792111	10.2049	0.858856	11.1169	0.579486	7.49111	0.714118	9.16915	0.903356	11.6617
0.405215	5.12617	0.167326	2.07829	0.653032	8.3296	0.797451	10.1519	0.865986	11.0756	0.584206	7.46225	0.719753	9.13226	0.907647	11.5778
0.406322	5.09556	0.169413	2.08014	0.659161	8.30903	0.802793	10.1001	0.87318	11.0361	0.588858	7.43321	0.725415	9.09655	0.911966	11.4963
0.407606	5.06014	0.1715	2.08195	0.665265	8.28863	0.808138	10.0495	0.880434	10.9983	0.593443	7.40401	0.731101	9.06199	0.916313	11.417
0.409063	5.02017	0.173588	2.08372	0.671343	8.26839	0.813487	10.0002	0.887746	10.9621	0.597961	7.37465	0.736812	9.02851	0.920688	11.3399
0.410504	4.98089	0.175675	2.08545	0.677396	8.24828	0.818842	9.95202	0.895113	10.9273	0.602412	7.34515	0.742546	8.99607	0.92509	11.2648
0.411928	4.94231	0.177761	2.08714	0.68342	8.22829	0.824201	9.905	0.902531	10.894	0.606797	7.3155	0.748302	8.96462	0.929519	11.1918
0.413338	4.90439	0.179848	2.08879	0.689416	8.2084	0.829568	9.8591	0.91	10.862	0.611115	7.28573	0.754078	8.93409	0.933975	11.1207
0.414734	4.86715	0.181934	2.0904	0.695382	8.1886	0.834942	9.8143	0.917515	10.8312	0.615367	7.25583	0.759874	8.90447	0.938457	11.0515
0.416116	4.83056	0.184021	2.09198	0.701318	8.16887	0.840324	9.77056	0.925074	10.8017	0.619554	7.22581	0.765687	8.87568	0.942965	10.984
0.417487	4.79462	0.186107	2.09352	0.707223	8.14921	0.845716	9.72786	0.932676	10.7732	0.623676	7.1957	0.771517	8.84771	0.947499	10.9183
0.418847	4.75931	0.188193	2.09503	0.713095	8.1296	0.851116	9.68618	0.940317	10.7458	0.627734	7.1655	0.777362	8.82049	0.952059	10.8543
0.420197	4.72463	0.190279	2.09651	0.718934	8.11003	0.856527	9.64549	0.947995	10.7194	0.631729	7.13521	0.78322	8.794	0.956643	10.792
0.421536	4.69055	0.192365	2.09795	0.724739	8.09048	0.861949	9.60576	0.955709	10.694	0.635661	7.10485	0.789092	8.7682	0.961252	10.7312
0.422867	4.65708	0.19445	2.09937	0.73051	8.07095	0.867382	9.56697	0.963455	10.6694	0.639531	7.07444	0.794974	8.74304	0.965885	10.6719
0.42419	4.6242	0.196536	2.10075	0.736245	8.05143	0.872826	9.52909	0.971232	10.6457	0.64334	7.04398	0.800866	8.7185	0.970542	10.6141
0.425505	4.5919	0.198621	2.10211	0.741943	8.03192	0.878282	9.49211	0.979038	10.6228	0.647089	7.01348	0.806766	8.69455	0.975223	10.5577
0.426814	4.56017	0.200707	2.10344	0.747605	8.0124	0.88375	9.45599	0.986869	10.6006	0.650778	6.98295	0.812673	8.67114	0.979928	10.5027
0.428115	4.52899	0.202792	2.10474	0.753229	7.99286	0.889231	9.42072	0.994725	10.5791	0.654409	6.95241	0.818585	8.64826	0.984656	10.449
0.429411	4.49837	0.204877	2.10602	0.758815	7.9733	0.894725	9.38627	1.0026	10.5583	0.657983	6.92186	0.824502	8.62586	0.989407	10.3967
0.430702	4.46827	0.206962	2.10727	0.764362	7.95372	0.900231	9.35262			0.6615	6.89131	0.830422	8.60393	0.99418	10.3455
0.431987	4.43871	0.209047	2.10849	0.769869	7.93411	0.905751	9.31976			0.664961	6.86078	0.836344	8.58244	0.998976	10.2956
0.433269	4.40966	0.211132	2.1097	0.775337	7.91447	0.911283	9.28764			0.668368	6.83027	0.842266	8.56135	1.00379	10.2469
0.434546	4.38111	0.213217	2.11088	0.780764	7.89478	0.916828	9.25627			0.671721	6.7998	0.848187	8.54065		
0.43582	4.35307	0.215302	2.11203	0.78615	7.87505	0.922387	9.22561			0.675022	6.76936	0.854106	8.52032		
0.43709	4.3255	0.217386	2.11317	0.791495	7.85528	0.927958	9.19564			0.678271	6.73898	0.860021	8.50033		
0.438358	4.29842	0.219471	2.11428	0.796798	7.83546	0.933543	9.16635			0.681469	6.70866	0.865932	8.48066		
0.439623	4.2718	0.221555	2.11538	0.802058	7.81558	0.93914	9.13771			0.684618	6.6784	0.871838	8.46129		
0.440886	4.24563	0.223639	2.11645	0.807277	7.79566	0.944749	9.10971			0.687718	6.64822	0.877737	8.4422		
0.442148	4.21992	0.225724	2.11751	0.812452	7.77567	0.950371	9.08232			0.69077	6.61811	0.883627	8.42337		
0.443408	4.19464	0.227808	2.11854	0.817585	7.75564	0.956004	9.05553			0.693776	6.5881	0.889509	8.40479		
0.444666	4.1698	0.229892	2.11956	0.822674	7.73555	0.961649	9.02931			0.696736	6.55819	0.895381	8.38644		
0.445924	4.14538	0.231976	2.12056	0.827719	7.7154	0.967306	9.00366			0.699651	6.52838	0.901241	8.36831		
0.447181	4.12136	0.23406	2.12154	0.832721	7.6952	0.972973	8.97855			0.702522	6.49867	0.90709	8.35037		
0.448437	4.09776	0.236144	2.1225	0.83768	7.67494	0.978651	8.95396			0.705351	6.46908	0.912925	8.33262		
0.449694	4.07455	0.238228	2.12345	0.842594	7.65462	0.984338	8.92987			0.708138	6.43962	0.918746	8.31505		
0.45095	4.05173	0.240312	2.12438	0.847465	7.63425	0.990036	8.90628			0.710883	6.41027	0.924552	8.29763		
0.452206	4.02929	0.242395	2.1253	0.852292	7.61383	0.995742	8.88316			0.713589	6.38106	0.930343	8.28036		
0.453463	4.00722	0.244479	2.1262	0.857075	7.59336	1.00146	8.86049			0.716256	6.35199	0.936116	8.26322		
0.454721	3.98552	0.246563	2.12708	0.861814	7.57284					0.718884	6.32305	0.941872	8.24621		
0.455979	3.96417	0.248646	2.12796	0.866509	7.55227					0.721475	6.29426	0.94761	8.22932		
0.457238	3.94318	0.25073	2.12881	0.871161	7.53165					0.72403	6.26562	0.953328	8.21252		
0.458498	3.92253	0.252813	2.12965	0.875769	7.51099					0.726549	6.23713	0.959026	8.19583		
0.45976	3.90222	0.254897	2.13048	0.880334	7.49028					0.729033	6.2088	0.964703	8.17922		
0.461022	3.88224	0.25698	2.1313	0.884856	7.46954					0.731484	6.18062	0.970359	8.1627		
0.462287	3.86258	0.259063	2.1321	0.889334	7.44876					0.733901	6.15261	0.975993	8.14624		
0.463553	3.84324	0.261146	2.13289	0.893769	7.42795					0.736286	6.12477	0.981603	8.12985		
0.46482	3.82421	0.26323	2.13367	0.898162	7.4071					0.738639	6.09709	0.98719	8.11351		
0.46609	3.80548	0.265313	2.13444	0.902513	7.38623					0.740962	6.06959	0.992753	8.09723		
0.467361	3.78705	0.267396	2.13519	0.906821	7.36533					0.743255	6.04225	0.998291	8.08099		
0.468635	3.76892	0.269479	2.13593	0.911087	7.3444					0.745519	6.0151	1.0038	8.06479		
0.469911	3.75107	0.271562	2.13666	0.915312	7.32345					0.747754	5.98812				
0.471189	3.73351	0.273645	2.13739	0.919495	7.30249					0.749961	5.96131				
0.472469	3.71622	0.275728	2.13809	0.923638	7.28151					0.752141	5.93469				
0.473752	3.6992	0.277811	2.13879	0.927739	7.26051					0.754295	5.90825				
0.475037	3.68245	0.279893	2.13948	0.9318	7.23951					0.756424	5.882				
0.476325	3.66595	0.281976	2.14016	0.935821	7.2185					0.758527	5.85593				
0.477616	3.64971	0.284059	2.14083	0.939803	7.19748					0.760606	5.83004				
0.478909	3.63373	0.286142	2.14149	0.943744	7.17646					0.762661	5.80435				
0.480205	3.61798	0.288224	2.14214	0.947647	7.15544					0.764693	5.77883				
0.481504	3.60248	0.290307	2.14278	0.951511	7.13443					0.766703	5.75351				
0.482805	3.58722	0.29239	2.14341	0.955337	7.11342					0.76869	5.72838				
0.48411	3.57218	0.294472	2.14404	0.959125	7.09242					0.770657	5.70343				
0.485418	3.55737	0.296555	2.14465	0.962875	7.07143					0.772602	5.67867				
0.486728	3.54279	0.298637	2.14526	0.966587	7.05046					0.774528	5.65411				
0.488042	3.52842	0.30072	2.14585	0.970263	7.0295					0.776434	5.62973				
0.489359	3.51427	0.302802	2.14644	0.973902	7.00855					0.77832	5.60554				
0.490679	3.50033	0.304884	2.14702	0.977506	6.98763					0.780189	5.58154				
0.492002	3.4866	0.306967	2.1476	0.981073	6.96673					0.782039	5.55773				
0.493328	3.47306	0.309049	2.14816	0.984605	6.94586					0.783871	5.53411				
0.494658	3.45973	0.311132	2.14872	0.988102	6.92501					0.785687	5.51068				
0.495991	3.44659	0.313214	2.14927	0.991564	6.9042					0.787485	5.48744				
0.497327	3.43365	0.315296	2.14982	0.994992	6.88341					0.789268	5.46439				
0.498667	3.42089	0.317378	2.15035	0.998386	6.86266					0.791035	5.44152				
0.500009	3.40832	0.31946	2.15088	1.00175	6.84194					0.792787	5.41884				
0.501355	3.39593	0.321543	2.15141							0.794523	5.39634				
0.502705	3.38371	0.323625	2.15192							0.796246	5.37404				
0.504058	3.37168	0.325707	2.15243							0.797954	5.35191				
