Sym0		Asym0		Sym1		Sym2		Sym3		Asym1		Asym2		Asym3	
446  Points		491  Points		153  Points		127  Points		111  Points		254  Points		137  Points		110  Points	
Freq (MHz)	Vgr (m/ms)	Freq (MHz)	Vgr (m/ms)	Freq (MHz)	Vgr (m/ms)	Freq (MHz)	Vgr (m/ms)	Freq (MHz)	Vgr (m/ms)	Freq (MHz)	Vgr (m/ms)	Freq (MHz)	Vgr (m/ms)	Freq (MHz)	Vgr (m/ms)
0.00744962	8.03071	0.000446534	0.554765	0.279517	0.148347	0.559017	0.0113546	0.567089	0.09142	0.139909	0.607807	0.419319	0.188321	0.698781	0.0765531
0.0149318	8.02943	0.000963406	0.654397	0.279655	0.239495	0.559028	0.0204036	0.567175	0.158771	0.140475	0.827466	0.419495	0.252094	0.698852	0.114231
0.0224116	8.02625	0.00166593	0.847749	0.279963	0.421531	0.559055	0.0401532	0.567385	0.291755	0.141451	1.26122	0.419789	0.379471	0.698993	0.189619
0.0298878	8.02171	0.00254309	1.02828	0.28044	0.602646	0.559103	0.0640518	0.567718	0.420615	0.142825	1.68195	0.420202	0.506491	0.699205	0.264955
0.0373592	8.01587	0.00358201	1.19429	0.281086	0.782428	0.559175	0.0931723	0.568169	0.544375	0.144585	2.08617	0.420733	0.633017	0.699487	0.340114
0.0448245	8.00872	0.00476852	1.34497	0.281898	0.960571	0.559276	0.127829	0.568733	0.662768	0.146713	2.47118	0.421381	0.758919	0.699839	0.415213
0.0522825	8.00012	0.00608821	1.48013	0.282876	1.13661	0.559413	0.167919	0.569404	0.775848	0.14919	2.83514	0.422147	0.884089	0.700261	0.490191
0.0597319	7.99019	0.00752658	1.59995	0.284016	1.31034	0.559589	0.213017	0.570178	0.884089	0.151996	3.17694	0.423029	1.00845	0.700752	0.564926
0.0671714	7.97882	0.00906954	1.70519	0.285318	1.48136	0.55981	0.262562	0.571051	0.988144	0.15511	3.49623	0.424026	1.13186	0.701314	0.639545
0.0745995	7.96597	0.010704	1.7968	0.286777	1.64938	0.560078	0.31595	0.57202	1.08859	0.158511	3.79313	0.425138	1.25417	0.701944	0.713927
0.0820151	7.95162	0.0124177	1.87587	0.288391	1.81419	0.560399	0.372628	0.57308	1.18606	0.162178	4.06819	0.426363	1.37536	0.702644	0.787986
0.0894165	7.93566	0.0141995	1.9437	0.290157	1.97548	0.560773	0.432078	0.57423	1.28102	0.166091	4.32234	0.427701	1.4953	0.703412	0.861836
0.0968023	7.91809	0.0160396	2.0015	0.292072	2.13313	0.561204	0.493923	0.575467	1.37398	0.170232	4.55656	0.429149	1.61388	0.70425	0.935414
0.104171	7.89886	0.0179291	2.05045	0.294132	2.28685	0.561693	0.557846	0.57679	1.46526	0.174582	4.7721	0.430708	1.73107	0.705155	1.00867
0.111521	7.87782	0.0198603	2.09167	0.296333	2.43653	0.562243	0.623656	0.578197	1.55509	0.179124	4.97055	0.432375	1.84673	0.706129	1.08157
0.11885	7.85493	0.0218267	2.1262	0.298672	2.58215	0.562855	0.691116	0.579688	1.6438	0.183227	5.13054	0.434149	1.96078	0.707171	1.15406
0.126158	7.83018	0.0238223	2.15498	0.301145	2.72353	0.563531	0.760117	0.58126	1.73148	0.186824	5.25775	0.436029	2.07316	0.70828	1.22623
0.133441	7.80338	0.0258423	2.17893	0.303747	2.86063	0.564272	0.830592	0.582914	1.81831	0.189862	5.35701	0.438012	2.18387	0.709456	1.29798
0.140698	7.77438	0.027619	2.19641	0.306475	2.99347	0.565079	0.9024	0.584649	1.90436	0.192303	5.43175	0.440098	2.29281	0.710698	1.36928
0.147928	7.7432	0.0291439	2.20903	0.309325	3.12203	0.565953	0.975629	0.586463	1.98967	0.19412	5.48478	0.442285	2.39987	0.712007	1.44017
0.155127	7.70969	0.030411	2.21818	0.312293	3.24629	0.566897	1.05024	0.588356	2.07438	0.195291	5.5178	0.44457	2.50508	0.713382	1.51061
0.162294	7.67366	0.0314163	2.22469	0.315374	3.36642	0.56791	1.12614	0.590328	2.15847	0.196988	5.56395	0.446953	2.60843	0.714822	1.58052
0.169426	7.635	0.0321573	2.22892	0.318566	3.48247	0.568995	1.20346	0.592378	2.24198	0.198847	5.61268	0.449431	2.70979	0.716327	1.64989
0.176521	7.59355	0.0326323	2.23146	0.321864	3.59451	0.570153	1.28222	0.594506	2.32493	0.201402	5.67649	0.452002	2.80916	0.717897	1.71883
0.183576	7.54919	0.0333159	2.23503	0.325264	3.70281	0.571384	1.36239	0.59671	2.40732	0.204673	5.75336	0.454665	2.90655	0.71953	1.78719
0.190588	7.50171	0.0340603	2.23851	0.328763	3.80741	0.572691	1.444	0.598992	2.48919	0.208687	5.84109	0.457418	3.00194	0.721227	1.85499
0.197554	7.45098	0.0350743	2.2428	0.332359	3.90858	0.574075	1.5271	0.601349	2.57047	0.21347	5.93714	0.460259	3.0953	0.722987	1.92225
0.204472	7.39676	0.0363594	2.24762	0.336047	4.00656	0.575537	1.61177	0.603781	2.65122	0.219051	6.03891	0.463186	3.18658	0.724809	1.98889
0.211338	7.33885	0.0379168	2.25257	0.339824	4.10158	0.577078	1.69799	0.606289	2.73142	0.224722	6.13235	0.466197	3.27583	0.726693	2.05493
0.218147	7.27717	0.0397479	2.25741	0.343188	4.18216	0.578701	1.78575	0.608871	2.8111	0.230478	6.21803	0.46929	3.36309	0.728638	2.12036
0.224898	7.21144	0.0418534	2.2617	0.346106	4.24933	0.580406	1.87507	0.611527	2.89026	0.236309	6.29647	0.472464	3.44831	0.730644	2.18522
0.231585	7.14144	0.0439624	2.26502	0.348553	4.30388	0.582195	1.96597	0.614257	2.96882	0.24221	6.36828	0.475716	3.53144	0.73271	2.2494
0.238205	7.06706	0.046074	2.26745	0.350511	4.34648	0.584069	2.05848	0.617059	3.04685	0.248176	6.43399	0.479044	3.61261	0.734835	2.31293
0.244754	6.98811	0.0481875	2.26914	0.351962	4.37754	0.586031	2.15255	0.619934	3.12438	0.254199	6.49399	0.482447	3.69181	0.73702	2.37583
0.251227	6.90439	0.0503023	2.27024	0.352897	4.39728	0.58808	2.24809	0.622881	3.20136	0.260276	6.54878	0.485923	3.76898	0.739262	2.43807
0.257619	6.81585	0.0524178	2.27086	0.354247	4.42543	0.59022	2.34514	0.6259	3.27784	0.266402	6.59873	0.48947	3.84422	0.741563	2.49962
0.263927	6.72232	0.0545338	2.27114	0.355725	4.45579	0.59245	2.44357	0.628989	3.35381	0.272573	6.64411	0.493087	3.91759	0.74392	2.56047
0.270146	6.62374	0.0566498	2.27105	0.35775	4.49683	0.594773	2.54333	0.632149	3.4293	0.278783	6.68529	0.49677	3.98903	0.746334	2.62064
0.27627	6.52012	0.0587657	2.27068	0.360339	4.54819	0.59719	2.6444	0.635379	3.50432	0.28503	6.72258	0.50052	4.05859	0.748803	2.68012
0.282295	6.41153	0.060881	2.27017	0.363508	4.60972	0.599701	2.74657	0.638679	3.57885	0.29131	6.75613	0.504333	4.1263	0.751328	2.73895
0.288217	6.298	0.0629959	2.26955	0.36728	4.6812	0.602307	2.84968	0.642048	3.65298	0.297619	6.78627	0.508209	4.19229	0.753907	2.797
0.294031	6.17969	0.0651101	2.26876	0.371679	4.76248	0.605011	2.95374	0.645486	3.72676	0.303955	6.81317	0.512145	4.25652	0.75654	2.85434
0.299732	6.05697	0.0672235	2.26789	0.376154	4.84333	0.607811	3.05852	0.648992	3.80013	0.310315	6.83694	0.515623	4.31113	0.759226	2.91103
0.305317	5.93003	0.069336	2.26694	0.380704	4.92389	0.61071	3.16377	0.652567	3.87318	0.316695	6.85791	0.518623	4.35675	0.761964	2.96699
0.310782	5.79926	0.0714476	2.26599	0.385329	5.00434	0.613707	3.26939	0.65621	3.94597	0.323094	6.87613	0.521127	4.39367	0.764754	3.0222
0.316124	5.66518	0.0735584	2.26504	0.390029	5.08489	0.616802	3.37517	0.65992	4.01845	0.329508	6.89171	0.523122	4.42252	0.767596	3.07668
0.321339	5.52826	0.0756683	2.26401	0.394804	5.16563	0.619996	3.48089	0.663698	4.09074	0.335936	6.90486	0.524597	4.44348	0.770488	3.13049
0.326425	5.38911	0.0777772	2.26299	0.399655	5.24665	0.623288	3.58627	0.667543	4.1629	0.342374	6.91556	0.525545	4.4567	0.773429	3.18354
0.331381	5.24828	0.0798851	2.262	0.404581	5.32795	0.626679	3.69113	0.671455	4.23493	0.348822	6.92403	0.526912	4.47563	0.77642	3.23588
0.336204	5.10638	0.0819922	2.26103	0.409583	5.40944	0.630166	3.79523	0.675434	4.30684	0.355277	6.93035	0.528405	4.4961	0.779459	3.28754
0.340896	4.96416	0.0840983	2.26007	0.414661	5.49098	0.633751	3.89826	0.67948	4.37882	0.361736	6.93454	0.530446	4.52354	0.782546	3.3384
0.345455	4.82217	0.0862036	2.25915	0.419815	5.57239	0.63743	4.00008	0.683593	4.45085	0.368198	6.9367	0.533044	4.55763	0.78568	3.38857
0.349881	4.68101	0.088308	2.25825	0.425044	5.65346	0.640714	4.08761	0.687774	4.52291	0.374662	6.93691	0.536213	4.59819	0.78886	3.43808
0.354177	4.54129	0.0904116	2.25736	0.430349	5.73387	0.643569	4.16119	0.692021	4.59518	0.381124	6.93514	0.539965	4.64481	0.792086	3.48686
0.358343	4.40351	0.0925143	2.25651	0.435729	5.8133	0.645967	4.22124	0.696336	4.66765	0.387585	6.93151	0.544318	4.697	0.795357	3.5349
0.362383	4.26819	0.0946163	2.25572	0.441182	5.89139	0.647888	4.26819	0.700719	4.74037	0.394041	6.92607	0.548718	4.74785	0.798673	3.58228
0.366297	4.13571	0.0967176	2.25492	0.446707	5.96783	0.649314	4.30236	0.705169	4.81345	0.400491	6.91881	0.553165	4.79744	0.802033	3.62891
0.370089	4.00645	0.0988181	2.25412	0.452302	6.04223	0.650233	4.32402	0.709103	4.87745	0.406933	6.90983	0.557657	4.84579	0.805435	3.67487
0.373762	3.88073	0.100918	2.25339	0.457966	6.11418	0.651561	4.35502	0.712498	4.93214	0.413366	6.89908	0.562194	4.89292	0.80888	3.7202
0.37732	3.75869	0.103017	2.2527	0.463695	6.18352	0.653016	4.38848	0.715334	4.97762	0.419789	6.8866	0.566775	4.93894	0.812367	3.76478
0.380766	3.64061	0.105116	2.25206	0.469488	6.24991	0.655012	4.43331	0.717595	5.01383	0.426199	6.87249	0.571397	4.98384	0.815895	3.80869
0.384104	3.52661	0.107214	2.25141	0.475341	6.31305	0.657566	4.48911	0.719267	5.04028	0.432595	6.85664	0.576061	5.02772	0.819464	3.85197
0.387338	3.41674	0.109311	2.25079	0.481252	6.37283	0.660696	4.55529	0.720343	5.05733	0.438975	6.83913	0.580766	5.07064	0.823073	3.89458
0.390471	3.31105	0.111408	2.25019	0.487216	6.42908	0.664425	4.63088	0.721895	5.08203	0.445339	6.81997	0.58551	5.11265	0.826721	3.93653
0.393508	3.2096	0.113504	2.24959	0.493232	6.48174	0.66878	4.71484	0.72359	5.10873	0.451684	6.79915	0.590293	5.15376	0.830408	3.9778
0.396452	3.11232	0.1156	2.24911	0.499294	6.53078	0.673211	4.79567	0.72591	5.14524	0.458008	6.77665	0.595114	5.19405	0.833653	4.01333
0.399307	3.01913	0.117695	2.24858	0.505401	6.5761	0.677716	4.87319	0.728868	5.19168	0.464311	6.75255	0.599971	5.23361	0.836441	4.04323
0.402077	2.93001	0.119789	2.24806	0.511548	6.6178	0.682292	4.94721	0.732481	5.24805	0.470591	6.72684	0.604866	5.27239	0.838762	4.06763
0.404767	2.84486	0.121884	2.24761	0.517733	6.65597	0.686935	5.01773	0.736769	5.31457	0.476846	6.69944	0.609796	5.3105	0.840607	4.0868
0.407379	2.76363	0.123978	2.24717	0.523951	6.69062	0.691642	5.08463	0.741756	5.3914	0.483075	6.67044	0.614761	5.34797	0.841969	4.10083
0.409916	2.68612	0.126071	2.24673	0.5302	6.7219	0.696409	5.14785	0.746815	5.46871	0.489275	6.63986	0.619761	5.38487	0.842843	4.10969
0.412384	2.61225	0.128164	2.24629	0.536476	6.74988	0.701234	5.20741	0.751946	5.54662	0.495447	6.60761	0.624795	5.42126	0.844103	4.12239
0.414784	2.54194	0.130257	2.24589	0.542778	6.77475	0.706113	5.26322	0.757151	5.62495	0.501588	6.57373	0.629863	5.45708	0.845477	4.13627
0.41712	2.47499	0.132349	2.24554	0.5491	6.79667	0.711042	5.31541	0.762428	5.70366	0.507697	6.53833	0.634964	5.49245	0.847353	4.15493
0.419396	2.41134	0.134441	2.24518	0.555442	6.81568	0.716017	5.36406	0.767779	5.78279	0.513771	6.5013	0.640098	5.52739	0.849738	4.17822
0.421614	2.35083	0.136533	2.24482	0.561801	6.83193	0.721037	5.40919	0.773203	5.86216	0.519811	6.46267	0.645264	5.56188	0.85264	4.20615
0.423776	2.29331	0.138624	2.24449	0.568173	6.84565	0.726097	5.45087	0.778702	5.94165	0.525814	6.42256	0.650462	5.59601	0.856068	4.23852
0.425887	2.23869	0.140715	2.24415	0.574557	6.85691	0.731194	5.48932	0.784275	6.02124	0.531779	6.38086	0.655691	5.62974	0.860034	4.2751
0.427948	2.18688	0.142806	2.24386	0.58095	6.86587	0.736326	5.5247	0.789922	6.10073	0.537704	6.33764	0.660952	5.66312	0.864034	4.31116
0.429962	2.13767	0.144896	2.24358	0.587351	6.87266	0.741489	5.55711	0.795643	6.18003	0.543588	6.29295	0.666244	5.69618	0.868067	4.34665
0.431931	2.09089	0.146987	2.24325	0.593757	6.87734	0.746681	5.58679	0.801438	6.25901	0.54943	6.24684	0.671566	5.72893	0.872134	4.38158
0.433613	2.05213	0.149076	2.24301	0.600166	6.88011	0.751899	5.61386	0.807306	6.33746	0.555229	6.19933	0.676919	5.76131	0.876232	4.416
0.435022	2.02048	0.151166	2.24275	0.606577	6.88103	0.757141	5.63861	0.813247	6.41529	0.560982	6.15037	0.682302	5.79332	0.880362	4.44987
0.436171	1.99526	0.153256	2.24247	0.612988	6.88013	0.762406	5.66119	0.81926	6.49236	0.566689	6.10011	0.687714	5.82504	0.884524	4.48321
0.437069	1.97588	0.155345	2.24225	0.619397	6.87763	0.76769	5.68179	0.825345	6.56854	0.572349	6.04865	0.693156	5.85639	0.888716	4.51603
0.437725	1.96178	0.157434	2.24204	0.625804	6.87359	0.772993	5.70066	0.8315	6.64362	0.57796	5.9959	0.698627	5.88733	0.892939	4.54837
0.438141	1.95302	0.159523	2.24178	0.632205	6.86802	0.778313	5.718	0.837724	6.71753	0.583522	5.94194	0.704127	5.91793	0.897192	4.58025
0.438737	1.9408	0.161611	2.24158	0.638601	6.86103	0.783648	5.73396	0.844017	6.79011	0.589032	5.88695	0.709654	5.9481	0.901474	4.61161
0.439381	1.92758	0.163699	2.24137	0.64499	6.85266	0.788998	5.74875	0.850377	6.86127	0.594491	5.83093	0.71521	5.97779	0.905785	4.64248
0.440249	1.91003	0.165788	2.24116	0.651371	6.84302	0.79436	5.76252	0.856803	6.9309	0.599898	5.77391	0.720793	6.00703	0.910125	4.67294
0.441336	1.88848	0.167876	2.24098	0.657741	6.83216	0.799735	5.77541	0.863292	6.9989	0.60525	5.716	0.726404	6.03579	0.914492	4.70292
0.442634	1.86336	0.169963	2.24081	0.664102	6.8201	0.805122	5.78768	0.869844	7.06523	0.610549	5.65723	0.73204	6.06397	0.918888	4.73242
0.444136	1.83522	0.172051	2.24062	0.67045	6.80693	0.81052	5.79934	0.876457	7.12982	0.615792	5.59775	0.737703	6.09154	0.923311	4.76156
0.445831	1.80453	0.174139	2.24042	0.676785	6.79261	0.815929	5.81052	0.88313	7.19262	0.62098	5.53764	0.743391	6.11854	0.927761	4.79022
0.447498	1.77541	0.176226	2.24028	0.683107	6.77725	0.821347	5.82135	0.88986	7.25354	0.626111	5.4769	0.749104	6.1449	0.932237	4.81848
0.449139	1.74789	0.178313	2.24013	0.689414	6.76089	0.826776	5.83196	0.896646	7.31256	0.631185	5.41563	0.754842	6.17049	0.936739	4.84633
0.450755	1.72186	0.1804	2.23995	0.695705	6.74352	0.832215	5.84239	0.903486	7.36972	0.636202	5.35397	0.760603	6.19537	0.941267	4.87378
0.452348	1.69727	0.182487	2.23979	0.70198	6.72521	0.837663	5.85266	0.910379	7.42496	0.641162	5.29194	0.766386	6.2195	0.945821	4.90086
0.453918	1.67403	0.184574	2.23967	0.708237	6.70594	0.84312	5.86296	0.917322	7.47832	0.646063	5.22958	0.772192	6.24276	0.9504	4.92752
0.455467	1.65208	0.18666	2.23954	0.714476	6.6858	0.848588	5.87327	0.924314	7.52976	0.650906	5.16705	0.778019	6.2652	0.955003	4.95385
0.456996	1.6314	0.188747	2.2394	0.720695	6.66478	0.854065	5.88356	0.931353	7.57928	0.655691	5.1044	0.783866	6.28678	0.959631	4.97979
0.458507	1.61187	0.190833	2.23926	0.726895	6.64284	0.859551	5.89397	0.938437	7.62697	0.660418	5.04169	0.789734	6.30743	0.964282	5.00536
0.46	1.59343	0.192919	2.23911	0.733073	6.62008	0.865047	5.90453	0.945565	7.67275	0.665086	4.97899	0.79562	6.32709	0.968957	5.0306
0.461476	1.57604	0.195006	2.239	0.739231	6.5965	0.870554	5.91519	0.952734	7.7167	0.669696	4.91633	0.801523	6.34581	0.973656	5.05545
0.462937	1.55973	0.197092	2.23887	0.745365	6.57212	0.87607	5.92594	0.959944	7.75889	0.674247	4.85379	0.807444	6.3636	0.978378	5.07999
0.464382	1.54432	0.199177	2.23877	0.751477	6.54696	0.881596	5.93688	0.967192	7.79924	0.67874	4.79144	0.813381	6.3803	0.983122	5.10424
0.465814	1.52981	0.201263	2.23869	0.757565	6.52102	0.887132	5.94799	0.974477	7.8378	0.683175	4.72935	0.819333	6.39597	0.987889	5.12812
0.467233	1.51618	0.203349	2.23853	0.763628	6.49431	0.892679	5.95922	0.981797	7.87463	0.687553	4.66758	0.825299	6.41065	0.992678	5.1517
0.468639	1.50335	0.205435	2.23842	0.769666	6.4669	0.898237	5.97062	0.98915	7.90974	0.691873	4.60612	0.831279	6.42425	0.997489	5.17496
0.470034	1.49134	0.20752	2.23833	0.775679	6.43876	0.903805	5.98215	0.996536	7.94311	0.696136	4.54507	0.83727	6.43681	1.00232	5.18647
0.471418	1.48006	0.209605	2.23824	0.781664	6.4099	0.909384	5.99384	1.00395	7.95936	0.700342	4.48444	0.843273	6.44825		
0.472792	1.46948	0.211691	2.23817	0.787623	6.38038	0.914974	6.00569			0.704492	4.42427	0.849286	6.45865		
0.474157	1.45961	0.213776	2.23805	0.793553	6.35016	0.920575	6.01763			0.708586	4.3646	0.855308	6.46799		
0.475512	1.45035	0.215861	2.23796	0.799456	6.31927	0.926187	6.02964			0.712625	4.30547	0.861338	6.47625		
0.476859	1.4417	0.217946	2.23788	0.805329	6.28779	0.93181	6.04176			0.716609	4.2469	0.867376	6.4835		
0.478199	1.43363	0.220031	2.23776	0.811172	6.25571	0.937445	6.05397			0.720539	4.18894	0.87342	6.48961		
0.479531	1.42612	0.222116	2.2377	0.816985	6.22301	0.943091	6.06623			0.724415	4.13162	0.879469	6.49471		
0.480856	1.41918	0.224201	2.23764	0.822768	6.18974	0.948749	6.07851			0.728237	4.07491	0.885522	6.49881		
0.482175	1.41267	0.226286	2.23753	0.828519	6.1559	0.954418	6.0908			0.732008	4.01883	0.891578	6.5018		
0.483488	1.40667	0.22837	2.23744	0.834239	6.12151	0.960098	6.1031			0.735726	3.96343	0.897637	6.50382		
0.484796	1.40114	0.230455	2.23736	0.839926	6.08666	0.96579	6.11537			0.739393	3.90878	0.903697	6.50482		
0.486099	1.39603	0.232539	2.23732	0.845581	6.05129	0.971494	6.12754			0.74301	3.85483	0.909758	6.50485		
0.487398	1.39135	0.234624	2.23727	0.851202	6.01544	0.977208	6.13967			0.746576	3.80156	0.915819	6.50387		
0.488692	1.387	0.236708	2.23716	0.85679	5.97917	0.982934	6.15174			0.750093	3.74904	0.921877	6.50196		
0.489982	1.3831	0.238793	2.23708	0.862344	5.94247	0.988671	6.16364			0.753562	3.69729	0.927934	6.49913		
0.491269	1.37954	0.240877	2.23703	0.867863	5.90537	0.99442	6.17541			0.756983	3.64625	0.933988	6.4953		
0.492553	1.3763	0.242961	2.23701	0.873348	5.86788	1.00018	6.18128			0.760357	3.59594	0.940038	6.49057		
0.493834	1.37339	0.245045	2.23693	0.878797	5.83006					0.763684	3.54643	0.946082	6.48498		
0.495112	1.37077	0.247129	2.23685	0.884211	5.79193					0.766965	3.49773	0.952122	6.47848		
0.496388	1.36851	0.249213	2.23681	0.88959	5.75348					0.770201	3.44976	0.958154	6.47113		
0.497662	1.3665	0.251297	2.23672	0.894932	5.71475					0.773393	3.40255	0.96418	6.46296		
0.498934	1.36472	0.253381	2.23667	0.900239	5.67578					0.776542	3.3561	0.970197	6.45392		
0.500205	1.36325	0.255465	2.23665	0.905508	5.63656					0.779647	3.31046	0.976206	6.44406		
0.501475	1.362	0.257549	2.23656	0.910742	5.59714					0.78271	3.2656	0.982205	6.43341		
0.502743	1.36097	0.259633	2.23648	0.915938	5.55758					0.785732	3.22148	0.988194	6.42201		
0.504011	1.36016	0.261716	2.23648	0.921098	5.51784					0.788713	3.17819	0.994172	6.40987		
0.505277	1.35958	0.2638	2.23644	0.92622	5.47794					0.791654	3.13563	1.00014	6.40362		
0.506544	1.35921	0.265884	2.23635	0.931305	5.43792					0.794556	3.09384				
0.50781	1.35899	0.267967	2.2363	0.936353	5.39788					0.797419	3.05284				
0.509076	1.35899	0.270051	2.23628	0.941363	5.35772					0.800245	3.01257				
0.510343	1.35917	0.272134	2.23623	0.946336	5.31746					0.803033	2.97306				
0.511609	1.35949	0.274218	2.23617	0.951272	5.27723					0.805785	2.93433				
0.512876	1.36001	0.276301	2.23614	0.95617	5.23697					0.808501	2.89633				
0.514143	1.36063	0.278385	2.23609	0.96103	5.1967					0.811182	2.85906				
0.515411	1.36142	0.280468	2.23603	0.965853	5.15646					0.813828	2.82255				
0.51668	1.36237	0.282551	2.23603	0.970639	5.11623					0.816441	2.78675				
0.51795	1.36339	0.284635	2.236	0.975387	5.07609					0.819021	2.75168				
0.519221	1.36456	0.286718	2.23591	0.980098	5.03602					0.821569	2.71733				
0.520492	1.36588	0.288801	2.2359	0.984771	4.99599					0.824084	2.68368				
0.521766	1.3673	0.290884	2.23586	0.989407	4.95605					0.826569	2.65074				
0.52304	1.36882	0.292967	2.2358	0.994006	4.91624					0.829024	2.61849				
0.524316	1.37043	0.29505	2.23577	0.998568	4.87652					0.831449	2.58691				
0.525594	1.37214	0.297133	2.23576	1.00309	4.85668					0.833844	2.55599				
0.526873	1.37399	0.299216	2.23571							0.836211	2.52574				
0.528154	1.37587	0.301299	2.23566							0.838551	2.49615				
0.529437	1.37787	0.303382	2.23566							0.840863	2.46722				
0.530722	1.37993	0.305465	2.23563							0.843148	2.43891				
0.532008	1.38206	0.307548	2.23558							0.845407	2.41124				
0.533297	1.38429	0.309631	2.23555							0.847641	2.38422				
0.534588	1.38658	0.311714	2.2355							0.84985	2.35775				
0.535881	1.38894	0.313797	2.23548							0.852034	2.33188				
0.537176	1.39132	0.315879	2.23546							0.854195	2.30664				
0.538473	1.3938	0.317962	2.23542							0.856333	2.28197				
0.539773	1.39632	0.320045	2.2354							0.858447	2.25784				
0.541075	1.39889	0.322128	2.23539							0.86054	2.23428				
0.54238	1.40154	0.32421	2.23535							0.862611	2.2113				
0.543687	1.40421	0.326293	2.23529							0.86466	2.18882				
