Sym0		Asym0		Sym1		Sym2		Sym3		Asym1		Asym3		Asym4	
464  Points		493  Points		162  Points		121  Points		110  Points		343  Points		133  Points		106  Points	
Freq (MHz)	Vph (m/ms)	Freq (MHz)	Vph (m/ms)	Freq (MHz)	Vph (m/ms)	Freq (MHz)	Vph (m/ms)	Freq (MHz)	Vph (m/ms)	Freq (MHz)	Vph (m/ms)	Freq (MHz)	Vph (m/ms)	Freq (MHz)	Vph (m/ms)
0.00557918	8.60882	3.24898e-005	0.0636765	0.279518	954.632	0.448487	620.751	0.559034	1056.38	0.139766	682.261	0.419271	1300.52	0.698776	2224.78
0.0135987	8.60801	0.000258655	0.179382	0.279667	228.393	0.448573	271.174	0.559147	382.743	0.140107	123.274	0.419383	334.415	0.698841	560.965
0.0216151	8.60657	0.000696208	0.293311	0.28	129.858	0.448725	173.529	0.559366	233.791	0.140919	68.1344	0.419629	191.982	0.698983	321.006
0.0296265	8.60444	0.00133667	0.4044	0.280514	90.8435	0.448945	127.629	0.55969	168.364	0.142191	47.3978	0.420007	134.727	0.699203	224.884
0.0376308	8.60161	0.00216827	0.511745	0.28121	69.9599	0.449234	100.968	0.560119	131.608	0.143908	36.6026	0.420517	103.853	0.699501	173.107
0.0456263	8.59811	0.00317674	0.61461	0.282084	56.9719	0.449591	83.5522	0.560653	108.074	0.146052	30.0313	0.421159	84.5555	0.699875	140.747
0.0536109	8.5939	0.00434638	0.712475	0.283134	48.1277	0.45002	71.2885	0.561292	91.7238	0.148601	25.6428	0.421932	71.362	0.700327	118.614
0.0615825	8.58898	0.00566041	0.804939	0.284357	41.7272	0.45052	62.1891	0.562034	79.7091	0.15153	22.5266	0.422835	61.7796	0.700856	102.525
0.0695389	8.58331	0.00710228	0.891821	0.285749	36.8882	0.451094	55.1726	0.56288	70.512	0.154815	20.215	0.423867	54.51	0.701461	90.3055
0.0774779	8.57689	0.00865586	0.973062	0.287308	33.1074	0.451743	49.5999	0.563829	63.2489	0.15843	18.4432	0.425026	48.8107	0.702143	80.7122
0.0853971	8.56968	0.0103061	1.04873	0.289029	30.0766	0.452469	45.0692	0.56488	57.3706	0.162349	17.0502	0.426312	44.2263	0.7029	72.9828
0.093294	8.56166	0.012039	1.11898	0.290906	27.5964	0.453275	41.3153	0.566032	52.5181	0.166549	15.9323	0.427723	40.4618	0.703734	66.6242
0.101166	8.55279	0.0138422	1.18405	0.292936	25.5324	0.454164	38.1559	0.567284	48.4463	0.171006	15.02	0.429258	37.3179	0.704643	61.303
0.10901	8.54304	0.0157046	1.2442	0.295114	23.7902	0.455137	35.4619	0.568636	44.9826	0.175698	14.2648	0.430914	34.655	0.705627	56.7858
0.116824	8.53237	0.0176166	1.29974	0.297434	22.3022	0.456197	33.1389	0.570086	42.0017	0.180605	13.6321	0.432691	32.3722	0.706685	52.9043
0.124603	8.52074	0.0195697	1.35097	0.299892	21.0181	0.457349	31.1166	0.571634	39.4105	0.185709	13.0963	0.434586	30.3953	0.707818	49.5341
0.132345	8.50808	0.0215567	1.39821	0.302481	19.9002	0.458594	29.3414	0.573279	37.1383	0.190991	12.6384	0.436597	28.6679	0.709024	46.5813
0.140046	8.49436	0.0235717	1.44178	0.305198	18.9192	0.459937	27.7718	0.575019	35.1306	0.196436	12.2438	0.438723	27.1467	0.710304	43.9738
0.147701	8.47952	0.0253463	1.47698	0.308036	18.0525	0.46138	26.3751	0.576853	33.3447	0.202029	11.9013	0.440961	25.7979	0.711656	41.6548
0.155307	8.46348	0.0268706	1.5051	0.31099	17.282	0.462928	25.1254	0.57878	31.7463	0.207757	11.6019	0.443309	24.5947	0.71308	39.5797
0.162859	8.44617	0.0281379	1.52712	0.314057	16.5933	0.464585	24.0016	0.580799	30.3082	0.213606	11.3387	0.445764	23.5154	0.714575	37.7125
0.170351	8.42752	0.0291436	1.54379	0.317232	15.9747	0.466353	22.9866	0.582909	29.008	0.219567	11.1058	0.448326	22.5425	0.716141	36.0238
0.177779	8.40745	0.029885	1.55565	0.32051	15.4165	0.468238	22.0661	0.585108	27.8272	0.225628	10.8988	0.450991	21.6617	0.717778	34.4897
0.185135	8.38587	0.0303604	1.56306	0.323888	14.9108	0.470243	21.2285	0.587395	26.7506	0.23178	10.7138	0.453756	20.861	0.719483	33.0902
0.192415	8.36267	0.0310446	1.57349	0.327364	14.4509	0.472371	20.4639	0.589769	25.7655	0.238015	10.5477	0.456621	20.1305	0.721258	31.8088
0.19961	8.33776	0.0317896	1.58453	0.330935	14.0315	0.474628	19.7639	0.592229	24.861	0.244324	10.398	0.459581	19.4616	0.723101	30.6315
0.206713	8.31103	0.0328047	1.59905	0.334599	13.6477	0.477016	19.1215	0.594773	24.028	0.250701	10.2625	0.462636	18.8473	0.725011	29.5463
0.213717	8.28236	0.0340912	1.61666	0.338355	13.2956	0.479538	18.5305	0.5974	23.2587	0.257137	10.1392	0.465781	18.2816	0.726988	28.5431
0.220612	8.25165	0.0356505	1.63688	0.342204	12.972	0.482199	17.9858	0.600108	22.5463	0.263628	10.0268	0.469016	17.7591	0.729031	27.6132
0.227391	8.21877	0.0374837	1.6592	0.346146	12.6738	0.485001	17.4828	0.602896	21.885	0.270166	9.92382	0.472338	17.2755	0.731139	26.7491
0.234043	8.18361	0.0395917	1.6831	0.350183	12.3986	0.487947	17.0174	0.605764	21.2698	0.276747	9.82918	0.475744	16.8266	0.733311	25.9442
0.240558	8.14606	0.0417031	1.70531	0.354317	12.1444	0.491039	16.5863	0.608709	20.6961	0.283366	9.74188	0.479232	16.4093	0.735547	25.1929
0.246928	8.10601	0.0438168	1.72599	0.358552	11.9092	0.494279	16.1864	0.61173	20.1602	0.289161	9.67114	0.482799	16.0203	0.737846	24.4901
0.253141	8.06337	0.0459321	1.74526	0.362891	11.6916	0.49767	15.8149	0.614826	19.6586	0.294117	9.61438	0.486444	15.6572	0.740206	23.8315
0.259189	8.01806	0.0480485	1.76325	0.367339	11.49	0.50121	15.4694	0.617996	19.1884	0.298227	9.56968	0.490164	15.3176	0.742628	23.2131
0.265063	7.97003	0.0501653	1.78007	0.371901	11.3032	0.504903	15.1478	0.621239	18.7467	0.301483	9.53568	0.493957	14.9994	0.74511	22.6316
0.270752	7.91925	0.0522822	1.79582	0.37658	11.1303	0.508746	14.8481	0.624552	18.3313	0.30388	9.5114	0.497821	14.7009	0.747652	22.0839
0.276251	7.86573	0.0543988	1.81058	0.381381	10.9701	0.512741	14.5685	0.627935	17.94	0.305416	9.49616	0.501754	14.4202	0.750252	21.5671
0.281552	7.80949	0.056515	1.82444	0.386309	10.8218	0.516886	14.3075	0.631387	17.5709	0.307625	9.47466	0.505753	14.1561	0.75291	21.079
0.28665	7.75062	0.0586306	1.83747	0.391366	10.6846	0.521179	14.0636	0.634906	17.2223	0.310028	9.45181	0.509817	13.9072	0.755625	20.6172
0.291543	7.68922	0.0607453	1.84973	0.396553	10.5577	0.525619	13.8356	0.638492	16.8927	0.313299	9.42157	0.513944	13.6723	0.758396	20.1798
0.29623	7.62543	0.0628591	1.86129	0.401873	10.4403	0.530204	13.6222	0.642142	16.5805	0.317442	9.38462	0.518131	13.4503	0.761222	19.765
0.300709	7.55945	0.064972	1.87221	0.407323	10.3319	0.53493	13.4223	0.645857	16.2847	0.322457	9.34175	0.522378	13.2403	0.764103	19.3712
0.304985	7.49146	0.0670838	1.88252	0.412903	10.2316	0.539795	13.235	0.649634	16.004	0.328347	9.29378	0.526683	13.0415	0.767038	18.9969
0.309059	7.4217	0.0691945	1.89228	0.418608	10.1389	0.544796	13.0593	0.653473	15.7373	0.335112	9.24155	0.531044	12.8529	0.770025	18.6408
0.312939	7.35041	0.0713043	1.90152	0.424434	10.0531	0.54993	12.8944	0.657373	15.4838	0.34188	9.19201	0.535459	12.674	0.773064	18.3016
0.31663	7.27785	0.073413	1.91029	0.429605	9.98362	0.555191	12.7394	0.661333	15.2426	0.348648	9.1449	0.539927	12.504	0.776155	17.9782
0.320141	7.20426	0.0755206	1.91862	0.434079	9.92792	0.560577	12.5938	0.665351	15.0128	0.355413	9.09995	0.544448	12.3424	0.779296	17.6696
0.323479	7.1299	0.0776273	1.92654	0.437823	9.88416	0.566083	12.4568	0.669428	14.7938	0.362171	9.05694	0.549019	12.1886	0.782487	17.3749
0.326654	7.055	0.0797329	1.93408	0.44081	9.85095	0.571706	12.3277	0.673561	14.5848	0.36892	9.01565	0.553639	12.0421	0.785726	17.0932
0.329676	6.9798	0.0818375	1.94126	0.443021	9.82728	0.57744	12.2062	0.677751	14.3854	0.375656	8.97591	0.558308	11.9024	0.789014	16.8237
0.332552	6.9045	0.0839412	1.9481	0.444442	9.81246	0.583282	12.0915	0.681996	14.1948	0.382377	8.93754	0.563025	11.7692	0.792349	16.5658
0.335293	6.8293	0.0860441	1.95464	0.446494	9.79157	0.589227	11.9833	0.686297	14.0125	0.38908	8.90038	0.567789	11.642	0.795731	16.3186
0.337908	6.75438	0.0881459	1.96089	0.448734	9.76942	0.595271	11.8811	0.690651	13.8382	0.395762	8.8643	0.572598	11.5206	0.799159	16.0816
0.340405	6.67989	0.0902471	1.96686	0.451799	9.74018	0.601409	11.7845	0.69506	13.6713	0.402419	8.82917	0.577454	11.4045	0.802632	15.8543
0.342792	6.60597	0.0923474	1.97258	0.455703	9.70461	0.607638	11.6931	0.699522	13.5115	0.40905	8.79486	0.582355	11.2935	0.806151	15.636
0.345079	6.53274	0.094447	1.97806	0.460464	9.66355	0.613953	11.6065	0.704037	13.3583	0.41565	8.76126	0.5873	11.1872	0.809713	15.4263
0.347272	6.46031	0.0965457	1.98332	0.466098	9.61791	0.62035	11.5244	0.708604	13.2114	0.422217	8.72828	0.59229	11.0856	0.813319	15.2248
0.349378	6.38875	0.0986439	1.98836	0.472624	9.56863	0.626823	11.4466	0.713224	13.0705	0.428749	8.69581	0.597324	10.9882	0.816967	15.0309
0.351404	6.31816	0.100741	1.99321	0.479208	9.52231	0.633371	11.3726	0.717897	12.9353	0.435241	8.66378	0.602402	10.8949	0.820659	14.8444
0.353356	6.24858	0.102838	1.99787	0.485843	9.47866	0.639987	11.3024	0.722622	12.8054	0.441692	8.63209	0.607525	10.8054	0.824392	14.6648
0.35524	6.18007	0.104934	2.00235	0.492522	9.43741	0.646667	11.2355	0.7274	12.6807	0.448097	8.60067	0.612691	10.7197	0.828166	14.4917
0.35706	6.11267	0.10703	2.00666	0.499238	9.39832	0.653408	11.1717	0.732231	12.5609	0.454455	8.56946	0.617901	10.6374	0.831981	14.3249
0.358823	6.04641	0.109125	2.01081	0.505985	9.36115	0.660206	11.111	0.737116	12.4458	0.460762	8.53838	0.623155	10.5585	0.835837	14.1641
0.360532	5.98131	0.111219	2.01482	0.512759	9.32572	0.667055	11.0529	0.742055	12.3352	0.467015	8.50737	0.628453	10.4828	0.839732	14.0089
0.362193	5.91738	0.113313	2.01868	0.519553	9.29184	0.673952	10.9974	0.747049	12.2288	0.473212	8.47639	0.633106	10.4193	0.843667	13.8592
0.363807	5.85464	0.115407	2.02241	0.526364	9.25936	0.680892	10.9443	0.752099	12.1265	0.479348	8.44536	0.637099	10.3669	0.847641	13.7146
0.36538	5.7931	0.1175	2.02601	0.533186	9.22812	0.687871	10.8933	0.757206	12.0282	0.485422	8.41426	0.640419	10.3248	0.851654	13.5748
0.366915	5.73274	0.119593	2.02949	0.540015	9.198	0.694885	10.8444	0.762371	11.9336	0.491431	8.38302	0.643056	10.2922	0.855705	13.4398
0.368414	5.67357	0.121685	2.03285	0.546849	9.16888	0.701928	10.7973	0.767597	11.8427	0.497371	8.35162	0.645002	10.2687	0.859795	13.3093
0.36988	5.61558	0.123777	2.03611	0.553682	9.14067	0.708995	10.7519	0.772886	11.7553	0.50324	8.32001	0.64625	10.2538	0.863921	13.183
0.371317	5.55876	0.125868	2.03926	0.560512	9.11325	0.716083	10.7081	0.778238	11.6713	0.509036	8.28816	0.648049	10.2326	0.868085	13.0609
0.372726	5.5031	0.127959	2.04231	0.567336	9.08655	0.723185	10.6657	0.783658	11.5906	0.514756	8.25605	0.650009	10.2099	0.872286	12.9427
0.374109	5.44858	0.13005	2.04526	0.574151	9.0605	0.730297	10.6246	0.789146	11.5132	0.520397	8.22364	0.652683	10.1796	0.876524	12.8282
0.37547	5.39519	0.132141	2.04813	0.580954	9.03502	0.736498	10.5898	0.794708	11.4388	0.525958	8.19092	0.656081	10.142	0.880798	12.7174
0.376809	5.3429	0.134231	2.05091	0.587743	9.01005	0.741784	10.5607	0.800345	11.3675	0.531436	8.15786	0.660212	10.0979	0.885108	12.61
0.378129	5.29171	0.13632	2.0536	0.594515	8.98553	0.746153	10.537	0.806061	11.2992	0.53683	8.12446	0.665088	10.0477	0.889454	12.5059
0.379431	5.24158	0.13841	2.05622	0.601269	8.96142	0.749605	10.5185	0.811859	11.2337	0.542137	8.09071	0.670724	9.99218	0.893835	12.405
0.380717	5.19251	0.140499	2.05876	0.608002	8.93765	0.752142	10.5051	0.817744	11.1712	0.547357	8.05659	0.676403	9.93883	0.898251	12.3071
0.381987	5.14447	0.142588	2.06123	0.614712	8.9142	0.753765	10.4965	0.823719	11.1114	0.552488	8.0221	0.682124	9.88753	0.902702	12.2122
0.383245	5.09744	0.144677	2.06363	0.621397	8.89102	0.756096	10.4843	0.829788	11.0543	0.55753	7.98725	0.687887	9.8382	0.907188	12.1201
0.384489	5.0514	0.146765	2.06597	0.628056	8.86808	0.758628	10.4711	0.835955	10.9999	0.562481	7.95204	0.69369	9.79073	0.911707	12.0308
0.385723	5.00633	0.148854	2.06824	0.634686	8.84533	0.762068	10.4533	0.842221	10.9482	0.56734	7.91647	0.699533	9.74506	0.91626	11.944
0.386947	4.9622	0.150942	2.07045	0.641287	8.82276	0.766411	10.431	0.848592	10.899	0.572109	7.88055	0.705415	9.70108	0.920847	11.8597
0.388161	4.91901	0.153029	2.0726	0.647856	8.80033	0.771651	10.4043	0.854229	10.8581	0.576785	7.84429	0.711334	9.65873	0.925467	11.7779
0.389367	4.87671	0.155117	2.07469	0.654392	8.77802	0.777777	10.3733	0.859098	10.8248	0.58137	7.80772	0.717289	9.61791	0.93012	11.6984
0.390566	4.8353	0.157204	2.07673	0.660892	8.75579	0.784776	10.3382	0.863169	10.7982	0.585863	7.77083	0.723279	9.57857	0.934805	11.6212
0.391758	4.79476	0.159292	2.07872	0.667357	8.73364	0.791737	10.3034	0.866417	10.7778	0.590266	7.73366	0.729302	9.54061	0.939522	11.5461
0.392945	4.75506	0.161379	2.08065	0.673784	8.71153	0.798655	10.269	0.868822	10.7632	0.594579	7.69621	0.735357	9.50398	0.94427	11.4731
0.393974	4.72113	0.163465	2.08254	0.680173	8.68945	0.805527	10.2347	0.870368	10.754	0.598802	7.65851	0.741441	9.4686	0.94905	11.4021
0.394849	4.6927	0.165552	2.08439	0.68652	8.66738	0.81235	10.2006	0.8726	10.7409	0.602937	7.62059	0.747553	9.4344	0.953861	11.333
0.395571	4.66951	0.167639	2.08619	0.692826	8.6453	0.819121	10.1667	0.87504	10.727	0.606984	7.58246	0.753692	9.40133	0.958703	11.2658
0.396141	4.65139	0.169725	2.08794	0.699089	8.6232	0.825839	10.1329	0.878379	10.7086	0.610946	7.54414	0.759854	9.36931	0.963574	11.2004
0.396559	4.63818	0.171811	2.08965	0.705308	8.60106	0.832504	10.0993	0.882638	10.6859	0.614822	7.50566	0.766039	9.33829	0.967844	11.1449
0.396827	4.62978	0.173897	2.09133	0.711481	8.57886	0.839117	10.0657	0.887842	10.6596	0.618616	7.46704	0.772244	9.30821	0.971501	11.0985
0.397211	4.61777	0.175983	2.09296	0.717607	8.55661	0.845678	10.0323	0.894017	10.6301	0.622328	7.42831	0.778468	9.27902	0.974537	11.0609
0.397629	4.60481	0.178069	2.09456	0.723685	8.53427	0.852191	9.99904	0.901197	10.5981	0.62596	7.38948	0.784707	9.25066	0.976945	11.0316
0.398196	4.58734	0.180154	2.09612	0.729714	8.51185	0.858657	9.96596	0.908472	10.5679	0.629513	7.35058	0.790961	9.22309	0.978721	11.0103
0.398912	4.56549	0.18224	2.09764	0.735693	8.48933	0.86508	9.9331	0.915839	10.5393	0.63299	7.31164	0.797227	9.19625	0.979859	10.9967
0.399777	4.53943	0.184325	2.09913	0.74162	8.4667	0.871463	9.90048	0.923293	10.5124	0.636392	7.27267	0.803504	9.17009	0.981497	10.9774
0.400791	4.50937	0.18641	2.10059	0.747496	8.44396	0.877811	9.86815	0.930828	10.4869	0.639721	7.23369	0.809788	9.14458	0.983281	10.9566
0.401953	4.47552	0.188496	2.10202	0.753318	8.4211	0.884127	9.83613	0.93844	10.4629	0.642978	7.19472	0.816079	9.11967	0.985714	10.9286
0.403113	4.44236	0.190581	2.10342	0.759086	8.39811	0.890415	9.80445	0.946125	10.4401	0.646166	7.15579	0.822375	9.09533	0.9888	10.8937
0.404273	4.40987	0.192665	2.10479	0.764798	8.37498	0.896678	9.77315	0.953877	10.4185	0.649287	7.11692	0.828673	9.0715	0.992546	10.8522
0.405433	4.37802	0.19475	2.10612	0.770455	8.35172	0.90292	9.74225	0.961691	10.3981	0.652341	7.07811	0.834971	9.04817	0.996959	10.8045
0.406592	4.34681	0.196835	2.10744	0.776056	8.32832	0.909144	9.71178	0.969564	10.3786	0.655332	7.0394	0.841268	9.02528	1.00205	10.7511
0.407752	4.31622	0.19892	2.10872	0.781599	8.30477	0.915353	9.68175	0.97749	10.3602	0.65826	7.00079	0.847562	9.00282		
0.408913	4.28623	0.201004	2.10998	0.787085	8.28108	0.92155	9.65218	0.985466	10.3426	0.661127	6.9623	0.853851	8.98074		
0.410074	4.25683	0.203088	2.11121	0.792512	8.25723	0.927737	9.62308	0.993488	10.3258	0.663936	6.92394	0.860134	8.95903		
0.411236	4.22801	0.205173	2.11242	0.79788	8.23324	0.933917	9.59445	1.00155	10.3098	0.666688	6.88574	0.866408	8.93764		
0.4124	4.19974	0.207257	2.1136	0.803189	8.2091	0.940091	9.56632			0.669385	6.8477	0.872672	8.91656		
0.413566	4.17203	0.209341	2.11476	0.808438	8.18481	0.946261	9.53867			0.672028	6.80983	0.878924	8.89577		
0.414733	4.14485	0.211425	2.1159	0.813627	8.16037	0.952429	9.51151			0.67462	6.77215	0.885164	8.87522		
0.415902	4.11819	0.213509	2.11702	0.818756	8.13578	0.958595	9.48484			0.677161	6.73467	0.891388	8.85491		
0.417074	4.09203	0.215593	2.11811	0.823824	8.11106	0.96476	9.45865			0.679653	6.6974	0.897597	8.83482		
0.418248	4.06638	0.217677	2.11919	0.828832	8.08619	0.970926	9.43293			0.682098	6.66035	0.903787	8.81491		
0.419424	4.04121	0.219761	2.12024	0.83378	8.06118	0.977093	9.40769			0.684497	6.62352	0.909958	8.79518		
0.420603	4.01652	0.221844	2.12128	0.838667	8.03604	0.983261	9.38291			0.686853	6.58693	0.916109	8.7756		
0.421785	3.99228	0.223928	2.12229	0.843493	8.01078	0.989431	9.35857			0.689166	6.55057	0.922238	8.75616		
0.42297	3.9685	0.226012	2.12329	0.848259	7.98538	0.995602	9.33468			0.691437	6.51447	0.928343	8.73685		
0.424158	3.94516	0.228095	2.12427	0.852965	7.95987	1.00177	9.31122			0.693668	6.47863	0.934424	8.71763		
0.425349	3.92225	0.230178	2.12523	0.857612	7.93424					0.695861	6.44304	0.940479	8.69852		
0.426544	3.89976	0.232262	2.12618	0.862198	7.90851					0.698017	6.40772	0.946507	8.67948		
0.427742	3.87768	0.234345	2.12711	0.866725	7.88267					0.700136	6.37267	0.952507	8.6605		
0.428943	3.85601	0.236428	2.12802	0.871194	7.85673					0.702221	6.3379	0.958477	8.64158		
0.430148	3.83472	0.238512	2.12892	0.875603	7.8307					0.704272	6.30341	0.964418	8.62271		
0.431357	3.81382	0.240595	2.1298	0.879955	7.80459					0.706291	6.2692	0.970326	8.60386		
0.432569	3.79329	0.242678	2.13067	0.884249	7.7784					0.708278	6.23527	0.976202	8.58504		
0.433786	3.77313	0.244761	2.13152	0.888486	7.75213					0.710235	6.20164	0.982045	8.56623		
0.435006	3.75333	0.246844	2.13236	0.892666	7.7258					0.712163	6.16829	0.987853	8.54743		
0.43623	3.73387	0.248927	2.13318	0.89679	7.69941					0.714063	6.13523	0.993626	8.52863		
0.437458	3.71476	0.251009	2.13399	0.900858	7.67296					0.715935	6.10247	0.999363	8.50982		
0.43869	3.69598	0.253092	2.13479	0.904872	7.64647					0.717781	6.07	1.00506	8.491		
0.439927	3.67753	0.255175	2.13558	0.908832	7.61994					0.719602	6.03783				
0.441167	3.6594	0.257258	2.13635	0.912738	7.59337					0.721399	6.00595				
0.442412	3.64158	0.25934	2.13711	0.91659	7.56677					0.723172	5.97437				
0.44366	3.62407	0.261423	2.13786	0.920391	7.54015					0.724922	5.94309				
0.444913	3.60685	0.263506	2.13859	0.92414	7.51351					0.726651	5.9121				
0.446171	3.58993	0.265588	2.13932	0.927838	7.48687					0.728358	5.88141				
0.447432	3.57329	0.267671	2.14003	0.931485	7.46021					0.730045	5.85101				
0.448698	3.55694	0.269753	2.14074	0.935084	7.43356					0.731713	5.82091				
0.449969	3.54086	0.271836	2.14143	0.938633	7.40692					0.733361	5.7911				
0.451243	3.52504	0.273918	2.14211	0.942134	7.38028					0.734992	5.76159				
0.452522	3.50949	0.276	2.14278	0.945588	7.35367					0.736605	5.73237				
0.453806	3.4942	0.278083	2.14344	0.948994	7.32707					0.738201	5.70343				
0.455093	3.47915	0.280165	2.1441	0.952355	7.30051					0.739781	5.67479				
0.456386	3.46436	0.282247	2.14474	0.955671	7.27397					0.741345	5.64643				
0.457682	3.4498	0.284329	2.14537	0.958942	7.24747					0.742894	5.61836				
0.458983	3.43548	0.286411	2.146	0.962169	7.22101					0.744428	5.59058				
0.460289	3.42139	0.288494	2.14661	0.965353	7.1946					0.745949	5.56307				
0.461599	3.40753	0.290576	2.14722	0.968494	7.16824					0.747456	5.53585				
0.462913	3.39389	0.292658	2.14782	0.971594	7.14193					0.74895	5.5089				
0.464232	3.38046	0.29474	2.14841	0.974653	7.11569					0.750432	5.48223				
0.465555	3.36725	0.296822	2.14899	0.977671	7.0895					0.751902	5.45583				
0.466882	3.35425	0.298904	2.14956	0.98065	7.06338					0.75336	5.42971				
0.468214	3.34146	0.300986	2.15013	0.98359	7.03733					0.754808	5.40385				
0.46955	3.32886	0.303068	2.15069	0.986492	7.01135					0.756244	5.37826				
0.470891	3.31646	0.30515	2.15124	0.989356	6.98545					0.757671	5.35294				
0.472236	3.30425	0.307231	2.15178	0.992183	6.95963					0.759087	5.32787				
0.473586	3.29223	0.309313	2.15232	0.994975	6.9339					0.760494	5.30307				
0.474939	3.28039	0.311395	2.15285	0.99773	6.90824					0.761893	5.27853				
0.476298	3.26874	0.313477	2.15337	1.00045	6.88268					0.763282	5.25424				
0.47766	3.25726	0.315559	2.15388							0.764663	5.2302				
0.479027	3.24596	0.31764	2.15439							0.766036	5.20641				
0.480398	3.23483	0.319722	2.15489							0.767401	5.18287				
0.481773	3.22386	0.321804	2.15539							0.768759	5.15958				
0.483153	3.21306	0.323885	2.15588							0.77011	5.13653				
0.484537	3.20242	0.325967	2.15636							0.771455	5.11371				
0.485925	3.19194	0.328049	2.15684							0.772792	5.09114				
