Sym0		Asym0		Sym1		Sym2		Sym3		Asym1		Asym2		Asym3	
454  Points		491  Points		161  Points		129  Points		108  Points		296  Points		141  Points		111  Points	
Freq (MHz)	Vgr (m/ms)	Freq (MHz)	Vgr (m/ms)	Freq (MHz)	Vgr (m/ms)	Freq (MHz)	Vgr (m/ms)	Freq (MHz)	Vgr (m/ms)	Freq (MHz)	Vgr (m/ms)	Freq (MHz)	Vgr (m/ms)	Freq (MHz)	Vgr (m/ms)
0.00606224	8.03074	0.000435045	0.549176	0.279585	0.258383	0.543723	0.01836	0.559017	0.0747635	0.139766	0.326994	0.419271	0.10929	0.698798	0.101374
0.0135444	8.02916	0.00094671	0.648984	0.279826	0.346024	0.54374	0.0317409	0.559087	0.143853	0.14007	0.548187	0.419373	0.171518	0.698892	0.137974
0.0210237	8.02518	0.00164436	0.84272	0.28023	0.520838	0.543782	0.0595786	0.559285	0.281101	0.140787	0.986399	0.419591	0.295801	0.699055	0.211152
0.0284985	8.01948	0.00251702	1.02365	0.280797	0.694539	0.543851	0.0899856	0.559611	0.415999	0.141908	1.41407	0.419924	0.419781	0.699286	0.284266
0.0359671	8.01203	0.00355181	1.19017	0.281524	0.866744	0.54395	0.12392	0.56006	0.547732	0.143422	1.82732	0.420373	0.543376	0.699585	0.357252
0.043428	8.00278	0.00473477	1.34142	0.282412	1.03706	0.544082	0.161978	0.560631	0.675627	0.145313	2.223	0.420937	0.666422	0.699952	0.430129
0.0508794	7.99174	0.0060514	1.47708	0.283457	1.2052	0.544252	0.204477	0.561319	0.799361	0.147564	2.59873	0.421615	0.788807	0.700386	0.502859
0.0583197	7.97883	0.00748714	1.59744	0.284657	1.37083	0.544463	0.251608	0.562121	0.918875	0.150156	2.95291	0.422406	0.910457	0.700889	0.57537
0.0657471	7.96398	0.00902804	1.70318	0.286011	1.53363	0.544721	0.303244	0.563031	1.03412	0.153067	3.28474	0.423311	1.03122	0.701458	0.647736
0.0731598	7.94726	0.0106608	1.79527	0.287515	1.69341	0.545028	0.359274	0.564048	1.14539	0.156276	3.59405	0.424328	1.15103	0.702096	0.719885
0.0805559	7.92845	0.0123733	1.87486	0.289167	1.84993	0.54539	0.419479	0.565166	1.25299	0.159764	3.8811	0.425456	1.26978	0.7028	0.791746
0.0879336	7.90754	0.0141544	1.94308	0.290962	2.00294	0.54581	0.483565	0.566382	1.35716	0.163508	4.14657	0.426694	1.38732	0.703571	0.863325
0.0952908	7.88448	0.015994	2.00123	0.292899	2.15229	0.546291	0.551239	0.567695	1.45829	0.167491	4.39142	0.428041	1.5036	0.704409	0.934633
0.102625	7.85915	0.0178835	2.0505	0.294973	2.29793	0.546837	0.622209	0.5691	1.55667	0.171691	4.61678	0.429496	1.61854	0.705312	1.00562
0.109935	7.83148	0.0198149	2.09199	0.297181	2.43964	0.547451	0.696325	0.570595	1.65259	0.176093	4.82391	0.431057	1.73204	0.706282	1.07625
0.117219	7.80135	0.0217817	2.12678	0.299519	2.57738	0.548135	0.773292	0.572179	1.74643	0.18068	5.01396	0.432723	1.84404	0.707318	1.14654
0.124472	7.76863	0.0237779	2.15578	0.301984	2.71121	0.548891	0.852886	0.57385	1.8383	0.185436	5.18855	0.434493	1.95444	0.708419	1.21645
0.131694	7.7332	0.0257987	2.17987	0.304571	2.84103	0.549724	0.935023	0.575605	1.92845	0.189708	5.32901	0.436365	2.06317	0.709585	1.28594
0.138882	7.69495	0.0275763	2.19748	0.307277	2.96692	0.550634	1.01954	0.577443	2.01718	0.193436	5.44047	0.438338	2.1702	0.710815	1.35499
0.146033	7.65367	0.029102	2.21024	0.3101	3.089	0.551624	1.10631	0.579364	2.10449	0.196576	5.52727	0.440409	2.27549	0.71211	1.42358
0.153144	7.60928	0.0303698	2.21938	0.313033	3.20733	0.552695	1.1952	0.581365	2.19057	0.199092	5.59257	0.442578	2.37899	0.713468	1.49177
0.160212	7.56158	0.0313756	2.22594	0.316076	3.32205	0.553851	1.28617	0.583445	2.27563	0.200961	5.63881	0.444842	2.4806	0.714889	1.55944
0.167234	7.51034	0.0321171	2.23027	0.319224	3.43333	0.555092	1.3792	0.585605	2.35969	0.202165	5.66765	0.4472	2.58031	0.716374	1.62659
0.174207	7.45548	0.0325923	2.23285	0.322474	3.54142	0.556421	1.47408	0.587842	2.44285	0.203906	5.70786	0.44965	2.67809	0.71792	1.6933
0.181127	7.39674	0.0332764	2.23629	0.325823	3.6465	0.557839	1.57082	0.590157	2.52523	0.205812	5.75021	0.452191	2.77396	0.719529	1.7594
0.18799	7.33388	0.0340211	2.23977	0.329269	3.74884	0.559348	1.66939	0.592548	2.60687	0.208427	5.80574	0.454819	2.86792	0.721199	1.82495
0.194793	7.26677	0.0350358	2.24419	0.332808	3.84871	0.560949	1.76961	0.595015	2.68782	0.21177	5.87246	0.457535	2.95983	0.722929	1.89
0.201531	7.19516	0.0363217	2.24904	0.33644	3.94643	0.562645	1.87147	0.597556	2.7682	0.215861	5.94846	0.460335	3.04974	0.724721	1.95445
0.2082	7.11889	0.0378802	2.25404	0.340162	4.04233	0.564437	1.97493	0.600173	2.84804	0.220726	6.03133	0.463217	3.13771	0.726571	2.01833
0.214796	7.03776	0.0397124	2.25881	0.343973	4.13672	0.566325	2.0799	0.602863	2.92737	0.226388	6.11883	0.466181	3.22372	0.728481	2.08155
0.221314	6.9516	0.0418192	2.26317	0.347364	4.21796	0.568312	2.1862	0.605628	3.00626	0.232128	6.1988	0.469224	3.3077	0.73045	2.14421
0.22775	6.86022	0.0439296	2.26649	0.350308	4.28664	0.570399	2.29376	0.608465	3.0848	0.237939	6.27166	0.472345	3.38967	0.732477	2.20624
0.234097	6.76351	0.0460425	2.26885	0.352777	4.34308	0.572587	2.40246	0.611376	3.163	0.243814	6.33791	0.475541	3.46974	0.734561	2.2676
0.240353	6.66142	0.0481573	2.27054	0.354753	4.38773	0.574876	2.51213	0.614359	3.24088	0.249749	6.39809	0.47881	3.54787	0.736702	2.32837
0.24651	6.55392	0.0502734	2.27164	0.356218	4.42038	0.577268	2.62263	0.617415	3.31857	0.255736	6.45261	0.482152	3.62406	0.7389	2.38845
0.252565	6.44095	0.0523902	2.27222	0.357162	4.44113	0.579763	2.73384	0.620543	3.39609	0.261772	6.50184	0.485563	3.69837	0.741153	2.44789
0.258512	6.32267	0.0545074	2.27241	0.358526	4.47118	0.582362	2.84552	0.623743	3.4735	0.267852	6.54627	0.489043	3.77083	0.743461	2.50664
0.264347	6.19927	0.0566246	2.27232	0.360019	4.50387	0.585065	2.95747	0.627015	3.55089	0.273971	6.58607	0.49259	3.84146	0.745824	2.56475
0.270064	6.07091	0.0587417	2.27194	0.362067	4.54817	0.587873	3.06946	0.63036	3.62825	0.280124	6.62153	0.496201	3.9103	0.74824	2.62221
0.275659	5.93797	0.0608581	2.27135	0.364686	4.60426	0.590785	3.18122	0.633776	3.70572	0.286309	6.65302	0.499876	3.97737	0.75071	2.67892
0.281129	5.80084	0.0629741	2.27069	0.367896	4.67213	0.593801	3.29263	0.637265	3.78337	0.292522	6.68075	0.503613	4.04274	0.753232	2.73499
0.286468	5.66003	0.0650893	2.26985	0.371722	4.752	0.59692	3.4033	0.640826	3.86118	0.298758	6.70487	0.50741	4.10646	0.755806	2.79037
0.291675	5.51611	0.0672037	2.26891	0.376192	4.84398	0.600142	3.51303	0.64446	3.93931	0.305015	6.72564	0.511265	4.16856	0.758432	2.84503
0.296747	5.3697	0.0693172	2.26797	0.380748	4.93638	0.603466	3.62151	0.648167	4.01787	0.31129	6.74324	0.515177	4.22904	0.761108	2.89904
0.301681	5.22147	0.0714298	2.26698	0.385391	5.02908	0.606891	3.72848	0.651947	4.09691	0.317581	6.75779	0.519145	4.28805	0.763834	2.95236
0.306477	5.07221	0.0735415	2.26594	0.390119	5.12198	0.610414	3.83365	0.655801	4.17648	0.323883	6.76939	0.522647	4.33834	0.766609	3.00494
0.311133	4.9226	0.0756521	2.26487	0.394935	5.21497	0.614034	3.93669	0.659729	4.25665	0.330195	6.77823	0.525665	4.38028	0.769433	3.05684
0.315649	4.7733	0.0777618	2.26382	0.399837	5.30776	0.617749	4.03737	0.663733	4.33753	0.336513	6.7844	0.528181	4.41441	0.772305	3.10807
0.320027	4.62508	0.0798705	2.26279	0.404825	5.39996	0.621557	4.13539	0.667812	4.41924	0.342837	6.78797	0.530185	4.44111	0.775225	3.1586
0.324268	4.47863	0.0819783	2.26179	0.409899	5.49126	0.625455	4.23051	0.671967	4.50188	0.349162	6.78909	0.531666	4.46042	0.778191	3.20845
0.328373	4.33456	0.0840851	2.26078	0.415058	5.58125	0.62944	4.32245	0.6762	4.58541	0.355487	6.78782	0.532617	4.47273	0.781203	3.25763
0.332345	4.19335	0.086191	2.2598	0.420299	5.66943	0.63351	4.41096	0.680512	4.66993	0.36181	6.78418	0.533989	4.49033	0.784261	3.3061
0.336187	4.0555	0.088296	2.25887	0.425622	5.75541	0.63766	4.49585	0.684902	4.75554	0.368129	6.77823	0.535487	4.50922	0.787364	3.35389
0.339902	3.92146	0.0904001	2.25797	0.431024	5.83883	0.641887	4.57694	0.689373	4.84232	0.374441	6.77008	0.537533	4.53467	0.790511	3.401
0.343494	3.7915	0.0925035	2.25708	0.436502	5.91917	0.646188	4.65415	0.693925	4.93018	0.380744	6.75982	0.540137	4.56647	0.793701	3.44745
0.346967	3.66584	0.094606	2.25619	0.442054	5.99611	0.649994	4.71814	0.69856	5.01919	0.387037	6.74737	0.543311	4.6044	0.796935	3.49327
0.350325	3.54474	0.0967077	2.25538	0.447675	6.06937	0.653278	4.77017	0.703278	5.1094	0.393317	6.73276	0.547067	4.64802	0.800211	3.53839
0.353572	3.42831	0.0988086	2.25461	0.453363	6.13871	0.65602	4.8114	0.708081	5.20067	0.399583	6.71615	0.551421	4.69709	0.803528	3.58286
0.356713	3.31659	0.100909	2.25386	0.459114	6.20395	0.658204	4.84298	0.712969	5.29304	0.405832	6.69748	0.55582	4.74513	0.806887	3.62669
0.359752	3.20959	0.103008	2.25312	0.464924	6.26492	0.65982	4.86553	0.717944	5.38639	0.412063	6.67676	0.560263	4.79219	0.810286	3.66988
0.362694	3.1073	0.105107	2.25238	0.470788	6.32151	0.660857	4.87957	0.723006	5.48059	0.418273	6.65409	0.56475	4.83838	0.813725	3.71247
0.365542	3.00965	0.107206	2.25172	0.476703	6.37376	0.662354	4.89939	0.727489	5.5633	0.424462	6.62939	0.569279	4.88367	0.817204	3.75444
0.368302	2.91659	0.109303	2.2511	0.482665	6.42171	0.663988	4.92036	0.731364	5.63416	0.430626	6.60272	0.57385	4.92814	0.820721	3.79574
0.370977	2.82795	0.1114	2.25049	0.488669	6.46539	0.666221	4.94797	0.734606	5.69298	0.436765	6.57412	0.578462	4.97188	0.824277	3.83646
0.373571	2.74363	0.113497	2.2499	0.494712	6.50488	0.669063	4.98159	0.737192	5.73959	0.442877	6.54359	0.583114	5.01491	0.82787	3.87657
0.376089	2.66354	0.115593	2.24934	0.50079	6.54037	0.672524	5.02004	0.739108	5.77402	0.448959	6.51112	0.587807	5.0573	0.8315	3.91609
0.378535	2.58743	0.117688	2.24881	0.5069	6.57196	0.676618	5.06227	0.74034	5.796	0.455009	6.47675	0.592538	5.09904	0.835167	3.95505
0.380911	2.51527	0.119783	2.24829	0.513036	6.59976	0.681356	5.10704	0.742119	5.82758	0.461027	6.44053	0.597308	5.14023	0.83887	3.99342
0.383222	2.44682	0.121878	2.2478	0.519197	6.62403	0.686134	5.14803	0.744064	5.86197	0.467011	6.40238	0.602116	5.1809	0.842126	4.02642
0.38547	2.38193	0.123972	2.24731	0.52538	6.64492	0.690949	5.1854	0.746727	5.90868	0.472957	6.36247	0.606962	5.22108	0.844922	4.05427
0.38766	2.32048	0.126065	2.24684	0.53158	6.66254	0.695797	5.21929	0.750126	5.96779	0.478866	6.32069	0.611845	5.2608	0.847249	4.07694
0.389794	2.26225	0.128158	2.24642	0.537794	6.67713	0.700674	5.24993	0.754281	6.0391	0.484735	6.27713	0.616765	5.30007	0.849098	4.09481
0.391875	2.20716	0.130251	2.24603	0.544022	6.68883	0.705579	5.27766	0.759218	6.12248	0.490563	6.23188	0.621721	5.33889	0.850463	4.10801
0.393907	2.15507	0.132344	2.24561	0.550258	6.69779	0.710509	5.30273	0.764967	6.2176	0.496348	6.18486	0.626714	5.37735	0.851339	4.11629
0.395891	2.10576	0.134436	2.24526	0.556502	6.70421	0.71546	5.32534	0.770804	6.31181	0.502088	6.13616	0.631741	5.41544	0.852601	4.12807
0.397831	2.05913	0.136527	2.2449	0.562751	6.70819	0.720432	5.34584	0.776728	6.40498	0.507782	6.08588	0.636805	5.45312	0.853976	4.14089
0.399728	2.01509	0.138619	2.2445	0.569002	6.70985	0.725422	5.36447	0.782739	6.49687	0.513428	6.03404	0.641903	5.49042	0.855854	4.15826
0.401586	1.97344	0.14071	2.24419	0.575254	6.70936	0.730428	5.38148	0.788834	6.58724	0.519026	5.98066	0.647035	5.52731	0.85824	4.18008
0.403174	1.93893	0.1428	2.24389	0.581504	6.70684	0.73545	5.39716	0.795013	6.67592	0.524573	5.92584	0.652202	5.56377	0.861143	4.20616
0.404506	1.91087	0.144891	2.24356	0.587751	6.7024	0.740485	5.4117	0.801274	6.76275	0.530068	5.86965	0.657403	5.59979	0.86457	4.23643
0.405593	1.88855	0.146981	2.24328	0.593994	6.69615	0.745534	5.42535	0.807615	6.84758	0.53551	5.81218	0.662637	5.63542	0.868533	4.27068
0.406443	1.87148	0.149071	2.24299	0.600229	6.68812	0.750595	5.43828	0.814034	6.93028	0.540898	5.75349	0.667904	5.67052	0.872528	4.30443
0.407064	1.85917	0.151161	2.2427	0.606456	6.67846	0.755667	5.45061	0.820529	7.0107	0.546231	5.69364	0.673203	5.70506	0.876554	4.33771
0.407459	1.85148	0.15325	2.24245	0.612674	6.66722	0.760751	5.46256	0.827098	7.08882	0.551508	5.63277	0.678535	5.73911	0.880611	4.3705
0.408024	1.84062	0.155339	2.24218	0.61888	6.6545	0.765846	5.47425	0.833738	7.16457	0.556727	5.57095	0.683897	5.77257	0.884698	4.40287
0.408635	1.82899	0.157428	2.24197	0.625073	6.64034	0.770952	5.48577	0.840448	7.23789	0.561888	5.50822	0.689291	5.80531	0.888815	4.43476
0.409459	1.81369	0.159517	2.24175	0.631253	6.62484	0.776068	5.49728	0.847225	7.30872	0.566991	5.44477	0.694715	5.83739	0.892962	4.46616
0.410492	1.7949	0.161605	2.2415	0.637418	6.60804	0.781195	5.50878	0.854067	7.37706	0.572034	5.38064	0.700169	5.86873	0.897137	4.49717
0.411726	1.77299	0.163694	2.24126	0.643567	6.5899	0.786333	5.52036	0.860971	7.44298	0.577017	5.31591	0.705651	5.89924	0.901342	4.52772
0.413155	1.74852	0.165782	2.24107	0.649698	6.57061	0.791482	5.53204	0.867936	7.50637	0.58194	5.25073	0.711161	5.92896	0.905574	4.55787
0.414772	1.72194	0.16787	2.24086	0.65581	6.55013	0.796642	5.54393	0.874959	7.56729	0.586801	5.18518	0.716699	5.95777	0.909835	4.58759
0.416364	1.69682	0.169957	2.24065	0.661903	6.52853	0.801813	5.55606	0.882037	7.6258	0.591602	5.11937	0.722263	5.98561	0.914123	4.61688
0.417934	1.67317	0.172045	2.24051	0.667975	6.50584	0.806995	5.56842	0.889169	7.6819	0.596341	5.05333	0.727852	6.01246	0.918438	4.64577
0.419482	1.6509	0.174132	2.24033	0.674026	6.48207	0.812189	5.58098	0.896351	7.73566	0.601018	4.9872	0.733466	6.0383	0.922779	4.67427
0.42101	1.62996	0.176219	2.24013	0.680054	6.4573	0.817394	5.59377	0.903583	7.78704	0.605634	4.9211	0.739104	6.06305	0.927148	4.70244
0.422519	1.61025	0.178306	2.23995	0.686059	6.43147	0.822612	5.60687	0.910862	7.83609	0.610188	4.85506	0.744764	6.08667	0.931542	4.73019
0.42401	1.59176	0.180393	2.23979	0.692038	6.40472	0.827842	5.62023	0.918185	7.88292	0.614681	4.78915	0.750446	6.10917	0.935962	4.75754
0.425485	1.57435	0.18248	2.23964	0.697993	6.37706	0.833085	5.6338	0.925551	7.92754	0.619112	4.7235	0.756148	6.13049	0.940407	4.78458
0.426944	1.55799	0.184567	2.23949	0.703921	6.34843	0.83834	5.64758	0.932957	7.96988	0.623482	4.65815	0.761869	6.15056	0.944877	4.81125
0.428388	1.54267	0.186653	2.23938	0.709823	6.31892	0.843608	5.66164	0.940402	8.00998	0.627792	4.59317	0.767609	6.16943	0.949372	4.83754
0.429819	1.52827	0.18874	2.23921	0.715696	6.28857	0.84889	5.67589	0.947883	8.04798	0.632041	4.52864	0.773365	6.18702	0.953892	4.86351
0.431236	1.51481	0.190826	2.23906	0.721541	6.25735	0.854185	5.6903	0.955398	8.08379	0.636231	4.46459	0.779138	6.20333	0.958435	4.88916
0.432641	1.50222	0.192912	2.23894	0.727356	6.22537	0.859493	5.70494	0.962946	8.1174	0.640361	4.40111	0.784925	6.2184	0.963002	4.91448
0.434035	1.49043	0.194998	2.23881	0.733141	6.19257	0.864815	5.71969	0.970524	8.14882	0.644432	4.3382	0.790725	6.23217	0.967593	4.93944
0.435419	1.47941	0.197084	2.23867	0.738895	6.15896	0.870151	5.73458	0.97813	8.17797	0.648444	4.27591	0.796538	6.24465	0.972206	4.96408
0.436792	1.46913	0.199169	2.23857	0.744617	6.12469	0.875501	5.74956	0.985763	8.20488	0.652399	4.21434	0.802361	6.25584	0.976843	4.98845
0.438156	1.45957	0.201255	2.23844	0.750308	6.08968	0.880865	5.76464	0.993419	8.22947	0.656297	4.15345	0.808195	6.26568	0.981502	5.0125
0.439512	1.45065	0.20334	2.2383	0.755965	6.05397	0.886243	5.77979	1.0011	8.24116	0.660139	4.0933	0.814037	6.27426	0.986183	5.03624
0.440859	1.44238	0.205426	2.23824	0.761589	6.01766	0.891635	5.79495			0.663925	4.03393	0.819886	6.28159	0.990886	5.05972
0.442199	1.43469	0.207511	2.23813	0.767178	5.98072	0.897041	5.81015			0.667656	3.97535	0.825742	6.28767	0.995611	5.08289
0.443533	1.42759	0.209596	2.238	0.772733	5.94314	0.902461	5.82529			0.671332	3.91761	0.831602	6.29244	1.00036	5.09439
0.44486	1.42107	0.211681	2.2379	0.778253	5.90501	0.907896	5.8404			0.674956	3.86069	0.837467	6.29595		
0.446181	1.41499	0.213766	2.23782	0.783736	5.86639	0.913344	5.85543			0.678526	3.80458	0.843334	6.2983		
0.447496	1.40942	0.215851	2.2377	0.789184	5.82719	0.918807	5.87034			0.682045	3.74935	0.849203	6.2994		
0.448807	1.40437	0.217936	2.2376	0.794595	5.78756	0.924283	5.88516			0.685513	3.69504	0.855072	6.29929		
0.450113	1.39968	0.220021	2.23752	0.799968	5.74749	0.929773	5.89978			0.68893	3.64155	0.860941	6.29802		
0.451415	1.39547	0.222105	2.23744	0.805305	5.70699	0.935277	5.9142			0.692298	3.58899	0.866808	6.2956		
0.452713	1.39168	0.22419	2.23736	0.810603	5.66612	0.940794	5.9284			0.695618	3.53729	0.872672	6.29204		
0.454008	1.38821	0.226274	2.23729	0.815863	5.62492	0.946324	5.94239			0.69889	3.48647	0.878533	6.28741		
0.4553	1.38509	0.228359	2.23722	0.821084	5.58341	0.951867	5.95608			0.702115	3.43656	0.884388	6.28165		
0.456589	1.38235	0.230443	2.23711	0.826267	5.5416	0.957422	5.96941			0.705294	3.38754	0.890238	6.27481		
0.457876	1.37999	0.232527	2.23701	0.83141	5.49956	0.96299	5.98245			0.708427	3.33942	0.896081	6.26696		
0.459161	1.3779	0.234612	2.23697	0.836515	5.4573	0.96857	5.99512			0.711516	3.29217	0.901916	6.25806		
0.460444	1.37605	0.236696	2.23691	0.841579	5.41482	0.974161	6.00739			0.714562	3.24584	0.907742	6.24819		
0.461725	1.37454	0.23878	2.23681	0.846605	5.3722	0.979764	6.01927			0.717564	3.20038	0.913558	6.23739		
0.463005	1.3733	0.240864	2.23675	0.85159	5.32946	0.985377	6.03067			0.720525	3.15578	0.919364	6.22555		
0.464284	1.37228	0.242948	2.23669	0.856535	5.28663	0.991001	6.0416			0.723445	3.11206	0.925159	6.21281		
0.465562	1.37156	0.245032	2.23659	0.861441	5.24376	0.996635	6.05209			0.726324	3.06921	0.930941	6.19923		
0.46684	1.37101	0.247115	2.23654	0.866307	5.20079	1.00228	6.05722			0.729164	3.02717	0.936711	6.18468		
0.468117	1.3707	0.249199	2.23651	0.871132	5.15781					0.731965	2.98601	0.942466	6.16931		
0.469394	1.37062	0.251283	2.23646	0.875918	5.11489					0.734728	2.94573	0.948206	6.15313		
0.470671	1.37072	0.253367	2.23636	0.880663	5.07194					0.737454	2.90625	0.953932	6.13614		
0.471948	1.37103	0.25545	2.23631	0.885369	5.02908					0.740144	2.86762	0.95964	6.11834		
0.473226	1.37148	0.257534	2.23625	0.890034	4.98629					0.742798	2.82977	0.965332	6.09977		
0.474504	1.37214	0.259617	2.23618	0.89466	4.94359					0.745417	2.79272	0.971007	6.08053		
0.475782	1.37295	0.261701	2.23615	0.899246	4.90107					0.748001	2.75647	0.976663	6.06051		
0.477062	1.3739	0.263784	2.2361	0.903793	4.85861					0.750553	2.72102	0.9823	6.0398		
0.478343	1.375	0.265867	2.23603	0.9083	4.81632					0.753072	2.68634	0.987917	6.01847		
0.479624	1.37625	0.267951	2.236	0.912767	4.77423					0.755559	2.65241	0.993515	5.99644		
0.480907	1.37767	0.270034	2.23595	0.917196	4.73231					0.758014	2.61926	0.999091	5.97386		
0.482191	1.37916	0.272117	2.23589	0.921585	4.69062					0.760439	2.58683	1.00465	5.96245		
0.483477	1.38078	0.2742	2.23586	0.925936	4.64908					0.762835	2.55512				
0.484764	1.38254	0.276283	2.2358	0.930248	4.60781					0.765201	2.52414				
0.486053	1.38437	0.278366	2.23578	0.934522	4.56677					0.767538	2.49386				
0.487344	1.38632	0.280449	2.23573	0.938758	4.52593					0.769848	2.46429				
0.488636	1.38839	0.282532	2.23567	0.942956	4.48541					0.77213	2.43541				
0.489931	1.39052	0.284615	2.23564	0.947116	4.44518					0.774386	2.40719				
0.491227	1.39276	0.286698	2.23558	0.951239	4.40515					0.776615	2.37961				
0.492526	1.39509	0.288781	2.23552	0.955325	4.3654					0.77882	2.35267				
0.493827	1.39746	0.290864	2.23549	0.959374	4.326					0.780999	2.32646				
0.49513	1.39993	0.292947	2.23547	0.963386	4.28686					0.783155	2.30079				
0.496436	1.40248	0.29503	2.23543	0.967362	4.24802					0.785287	2.27573				
0.497744	1.40507	0.297112	2.23541	0.971301	4.20949					0.787395	2.25133				
0.499054	1.40772	0.299195	2.23536	0.975206	4.17121					0.789482	2.22752				
0.500367	1.41048	0.301278	2.2353	0.979074	4.13329					0.791546	2.20427				
0.501682	1.41325	0.30336	2.2353	0.982907	4.09573					0.793589	2.18154				
0.503	1.4161	0.305443	2.23527	0.986706	4.05845					0.795611	2.15941				
0.504321	1.41899	0.307525	2.23522	0.99047	4.02146					0.797613	2.13784				
0.505644	1.4219	0.309608	2.23519	0.9942	3.98481					0.799595	2.1168				
0.50697	1.42489	0.31169	2.23514	0.997895	3.9485					0.801557	2.09628				
0.508299	1.42792	0.313773	2.23512	1.00156	3.93044					0.803501	2.07628				
0.509631	1.43094	0.315855	2.2351							0.805426	2.05679				
0.510966	1.43403	0.317938	2.23506							0.807334	2.03778				
0.512303	1.43722	0.32002	2.23504							0.809224	2.01924				
