Sym0		Asym0		Sym1		Sym2		Sym3		Asym2		Asym3		Asym4	
461  Points		491  Points		161  Points		124  Points		109  Points		327  Points		135  Points		107  Points	
Freq (MHz)	Vgr (m/ms)	Freq (MHz)	Vgr (m/ms)	Freq (MHz)	Vgr (m/ms)	Freq (MHz)	Vgr (m/ms)	Freq (MHz)	Vgr (m/ms)	Freq (MHz)	Vgr (m/ms)	Freq (MHz)	Vgr (m/ms)	Freq (MHz)	Vgr (m/ms)
1.9131e-005	8.41165	0.000439787	0.566422	0.279509	0.10336	0.481539	0.0588343	0.559043	0.135093	0.139821	0.506852	0.419278	0.136043	0.698806	0.117257
0.00785622	8.41065	0.00096752	0.670382	0.279605	0.198271	0.481594	0.0925438	0.559169	0.190578	0.140293	0.746894	0.419405	0.20407	0.698915	0.157143
0.0156914	8.40772	0.00168897	0.871666	0.279878	0.387718	0.481712	0.160201	0.559399	0.301516	0.141213	1.22137	0.419659	0.340036	0.699099	0.236885
0.0235231	8.40282	0.00259177	1.05861	0.280327	0.576182	0.481893	0.228351	0.559731	0.412211	0.142569	1.68215	0.420039	0.475664	0.699357	0.316535
0.0313492	8.39594	0.00366157	1.22961	0.280952	0.763192	0.482137	0.297196	0.560167	0.522492	0.144347	2.12486	0.420545	0.610691	0.699689	0.396073
0.039168	8.38709	0.00488302	1.38376	0.28175	0.948174	0.482446	0.366916	0.560705	0.632313	0.146529	2.54622	0.421177	0.745099	0.700095	0.475462
0.0469776	8.37613	0.00624005	1.5208	0.282719	1.13071	0.482821	0.43773	0.561345	0.741577	0.149092	2.944	0.421934	0.87871	0.700575	0.554626
0.054776	8.363	0.00771686	1.6413	0.283856	1.31049	0.483262	0.509776	0.562087	0.850243	0.152014	3.31673	0.422814	1.01131	0.701128	0.63356
0.0625611	8.34772	0.00929843	1.74614	0.285161	1.487	0.483771	0.583264	0.562929	0.958223	0.155272	3.66389	0.423818	1.14293	0.701755	0.712252
0.070331	8.3302	0.0109706	1.83652	0.286627	1.65992	0.484349	0.658463	0.563872	1.06535	0.158842	3.98563	0.424944	1.27329	0.702455	0.790682
0.0780835	8.31025	0.0127206	1.9137	0.288254	1.82897	0.484998	0.735471	0.564914	1.17163	0.162699	4.28253	0.426191	1.40233	0.703229	0.868805
0.0858163	8.28786	0.0145366	1.97916	0.290035	1.99384	0.485719	0.814414	0.566055	1.27698	0.166822	4.55568	0.427557	1.52995	0.704074	0.946537
0.093527	8.26292	0.0164085	2.03433	0.291969	2.15432	0.486515	0.895542	0.567294	1.38133	0.171188	4.80637	0.429042	1.65594	0.704992	1.02392
0.101213	8.23524	0.0183273	2.08052	0.29405	2.31019	0.487388	0.979063	0.568629	1.48471	0.175778	5.03595	0.430643	1.78033	0.705982	1.10092
0.108872	8.20462	0.0202853	2.11892	0.296274	2.46131	0.48834	1.06503	0.570061	1.58694	0.180572	5.24586	0.432359	1.90297	0.707044	1.17748
0.116502	8.17101	0.0222757	2.1506	0.298636	2.60761	0.489373	1.1536	0.571586	1.68806	0.185553	5.43761	0.434189	2.02376	0.708176	1.25356
0.124098	8.13419	0.0242927	2.17683	0.301133	2.74905	0.490489	1.24492	0.573206	1.78799	0.190704	5.61259	0.43613	2.14264	0.70938	1.32918
0.131659	8.09386	0.0260686	2.19579	0.303759	2.88565	0.491692	1.33915	0.574918	1.8867	0.196011	5.77212	0.438181	2.25948	0.710653	1.40433
0.13918	8.0499	0.0275934	2.20942	0.30651	3.01751	0.492985	1.43641	0.576722	1.98422	0.20146	5.91752	0.44034	2.37423	0.711997	1.47888
0.146659	8.00204	0.0288609	2.21913	0.309381	3.14471	0.494369	1.53676	0.578616	2.08045	0.207038	6.04998	0.442605	2.48689	0.713409	1.55293
0.154091	7.94997	0.0298667	2.22598	0.31237	3.26741	0.495848	1.64026	0.580598	2.17543	0.212734	6.17046	0.444974	2.59738	0.71489	1.62637
0.161473	7.89345	0.0306082	2.23058	0.31547	3.38589	0.497425	1.74699	0.582669	2.26915	0.218536	6.28002	0.447445	2.70564	0.71644	1.69922
0.1688	7.83211	0.0310835	2.23321	0.318679	3.50045	0.499104	1.85703	0.584827	2.36152	0.224436	6.37961	0.450016	2.81164	0.718057	1.77146
0.176067	7.76568	0.0317677	2.2369	0.321993	3.61143	0.500886	1.97041	0.58707	2.45258	0.230424	6.47017	0.452684	2.91531	0.71974	1.84306
0.18327	7.69375	0.0325127	2.2406	0.325408	3.71922	0.502775	2.08707	0.589397	2.54241	0.235707	6.54228	0.455448	3.01673	0.721491	1.91397
0.190404	7.61597	0.0335277	2.24494	0.328923	3.82426	0.504775	2.20701	0.591807	2.63088	0.240256	6.59895	0.458306	3.1158	0.723307	1.98423
0.197462	7.53204	0.0348141	2.24993	0.332534	3.92713	0.506888	2.33015	0.594299	2.71803	0.244045	6.64266	0.461254	3.21249	0.725188	2.05385
0.204439	7.44152	0.0363732	2.25502	0.336241	4.02826	0.509117	2.45646	0.596872	2.80394	0.247059	6.67528	0.464292	3.30685	0.727134	2.1227
0.211328	7.34398	0.0382063	2.25984	0.340041	4.12829	0.511465	2.58581	0.599524	2.88851	0.249284	6.69843	0.467416	3.39888	0.729144	2.19082
0.218123	7.23914	0.040314	2.26409	0.343933	4.22779	0.513935	2.71794	0.602254	2.97182	0.250712	6.71265	0.470625	3.48862	0.731216	2.25821
0.224818	7.12671	0.0424251	2.26728	0.347919	4.32733	0.51653	2.8528	0.605062	3.05391	0.25277	6.73233	0.473917	3.57604	0.733352	2.32489
0.231403	7.00636	0.0445388	2.26953	0.351997	4.42752	0.519251	2.99016	0.607945	3.13475	0.255014	6.75307	0.477289	3.66114	0.735549	2.39078
0.237873	6.87796	0.0466542	2.27098	0.356169	4.52889	0.522102	3.12967	0.610903	3.21432	0.258076	6.7799	0.480739	3.74397	0.737807	2.45591
0.24422	6.74134	0.0487706	2.27189	0.360436	4.63187	0.525083	3.27115	0.613934	3.29276	0.261966	6.81192	0.484265	3.8246	0.740125	2.52027
0.250435	6.59658	0.0508876	2.27228	0.3648	4.73682	0.528197	3.41422	0.617039	3.37002	0.266693	6.8477	0.487866	3.90302	0.742503	2.58379
0.256512	6.44379	0.0530047	2.27228	0.369263	4.84411	0.531445	3.55856	0.620214	3.44608	0.272269	6.88592	0.491538	3.97929	0.74494	2.6466
0.262442	6.2833	0.0551217	2.272	0.373826	4.95381	0.534828	3.70391	0.62346	3.5211	0.278704	6.92518	0.495281	4.05346	0.747434	2.70857
0.26822	6.11563	0.0572383	2.27145	0.378493	5.06583	0.538347	3.84973	0.626775	3.59502	0.285174	6.95972	0.499091	4.12557	0.749987	2.76973
0.273838	5.94141	0.0593543	2.27077	0.383266	5.18001	0.542002	3.9957	0.630159	3.66788	0.291673	6.98973	0.502968	4.19565	0.752596	2.83011
0.279291	5.7615	0.0614696	2.26992	0.387512	5.28105	0.545792	4.14143	0.63361	3.73976	0.298198	7.01551	0.50691	4.26383	0.75526	2.88962
0.284574	5.57688	0.0635841	2.26895	0.391197	5.36802	0.549719	4.28656	0.637128	3.81072	0.304746	7.03725	0.510913	4.33016	0.75798	2.94838
0.289683	5.38877	0.0656976	2.26791	0.39429	5.44025	0.55378	4.43063	0.640711	3.88072	0.311311	7.05516	0.514978	4.39463	0.760754	3.00635
0.294615	5.19836	0.0678101	2.26684	0.396765	5.4976	0.557975	4.57324	0.644359	3.94989	0.317892	7.06939	0.519102	4.45736	0.763582	3.06347
0.29937	5.00703	0.0699216	2.26576	0.398602	5.53982	0.562302	4.71403	0.648071	4.01829	0.324485	7.08016	0.523284	4.51843	0.766463	3.11977
0.303945	4.81611	0.0720321	2.26467	0.399784	5.56678	0.566759	4.85264	0.651847	4.08595	0.331085	7.0876	0.527522	4.57789	0.769395	3.17532
0.308344	4.62682	0.0741415	2.26357	0.401494	5.60549	0.571344	4.98873	0.655685	4.15292	0.337691	7.09176	0.531814	4.63588	0.77238	3.23003
0.312567	4.44049	0.07625	2.26248	0.403366	5.64751	0.576055	5.12188	0.659585	4.21927	0.3443	7.09278	0.53616	4.69237	0.775414	3.28393
0.316618	4.25821	0.0783574	2.26142	0.405935	5.70437	0.580888	5.25187	0.663547	4.28518	0.350908	7.09079	0.540558	4.7475	0.778499	3.3371
0.320502	4.08092	0.0804639	2.26034	0.40922	5.77572	0.585841	5.37842	0.66757	4.35063	0.357513	7.08585	0.545007	4.80142	0.781633	3.38945
0.324222	3.90944	0.0825693	2.25932	0.413248	5.86096	0.59091	5.50122	0.671654	4.41568	0.364112	7.07796	0.549505	4.85413	0.784815	3.44104
0.327786	3.74439	0.0846739	2.25837	0.418046	5.95892	0.596092	5.62004	0.675798	4.48053	0.370702	7.06727	0.554052	4.9057	0.788045	3.49186
0.3312	3.58633	0.0867775	2.25739	0.42365	6.06806	0.601382	5.73469	0.680003	4.54526	0.377281	7.05376	0.558646	4.95626	0.791321	3.54194
0.334469	3.43559	0.0888803	2.25645	0.429354	6.17298	0.606778	5.84491	0.684268	4.60998	0.383846	7.03749	0.563287	5.00589	0.794645	3.59127
0.337602	3.29225	0.0909822	2.25558	0.435153	6.27302	0.612274	5.95051	0.688593	4.67481	0.390394	7.01851	0.567974	5.05469	0.798013	3.63983
0.340604	3.15644	0.0930833	2.25475	0.441043	6.36749	0.617866	6.05141	0.692979	4.73987	0.396924	6.99679	0.572706	5.10271	0.801427	3.68773
0.343483	3.02817	0.0951837	2.25392	0.447018	6.456	0.62355	6.14736	0.697425	4.80533	0.403432	6.97238	0.577483	5.15004	0.804885	3.73489
0.346247	2.90719	0.0972832	2.25315	0.453073	6.53827	0.629321	6.23827	0.701933	4.87135	0.409916	6.94527	0.581681	5.19085	0.808386	3.78133
0.3489	2.7934	0.0993822	2.25243	0.459201	6.61412	0.635174	6.32398	0.706502	4.93814	0.416374	6.91549	0.585285	5.22527	0.811931	3.8271
0.351452	2.68659	0.10148	2.2517	0.465397	6.68354	0.641105	6.4043	0.711135	5.00587	0.422803	6.8831	0.588284	5.25347	0.815518	3.87221
0.353907	2.58644	0.103578	2.25098	0.471655	6.74645	0.647108	6.47918	0.71583	5.07468	0.4292	6.848	0.590666	5.27568	0.819146	3.91664
0.356271	2.49264	0.105675	2.25035	0.477969	6.80306	0.653178	6.54843	0.720591	5.14483	0.435563	6.81024	0.592425	5.29209	0.822816	3.96047
0.358551	2.40485	0.107771	2.24975	0.484332	6.8536	0.65931	6.61187	0.725417	5.21659	0.44189	6.76986	0.593553	5.30241	0.826526	4.00368
0.360752	2.32281	0.109867	2.24912	0.49074	6.89824	0.665499	6.66946	0.730311	5.2901	0.448178	6.72679	0.595178	5.31723	0.830277	4.04622
0.36288	2.24626	0.111962	2.24855	0.497186	6.93722	0.671738	6.721	0.735275	5.36569	0.454425	6.68112	0.59695	5.33346	0.834066	4.08815
0.364938	2.17474	0.114057	2.24804	0.503666	6.97085	0.678023	6.76643	0.74031	5.44356	0.460627	6.63286	0.599369	5.35526	0.837894	4.12954
0.366932	2.10802	0.116151	2.24753	0.510175	6.99945	0.683531	6.80105	0.745418	5.52393	0.466784	6.58197	0.602442	5.3828	0.841761	4.17035
0.368866	2.04584	0.118245	2.24702	0.516709	7.02335	0.688248	6.82674	0.750603	5.60711	0.472892	6.52851	0.606179	5.41594	0.845665	4.2106
0.370744	1.98785	0.120338	2.24655	0.523263	7.04277	0.692161	6.84522	0.755866	5.6932	0.478949	6.47248	0.610592	5.45466	0.849607	4.25028
0.37257	1.93383	0.122431	2.24609	0.529832	7.05801	0.695261	6.85814	0.761212	5.78246	0.484953	6.41399	0.615694	5.4989	0.853585	4.28945
0.374348	1.88349	0.124524	2.24568	0.536415	7.0694	0.697545	6.86653	0.766641	5.87501	0.490901	6.35311	0.620838	5.54289	0.8576	4.32809
0.37608	1.83666	0.126616	2.24525	0.543005	7.07715	0.699008	6.87146	0.772159	5.97089	0.496791	6.28979	0.626023	5.58667	0.86165	4.36625
0.37777	1.79302	0.128707	2.24486	0.549602	7.0815	0.701112	6.87791	0.777767	6.07015	0.502621	6.22417	0.631248	5.63027	0.865736	4.4039
0.379421	1.7524	0.130799	2.24448	0.556201	7.08272	0.703402	6.88402	0.78347	6.17258	0.508389	6.1564	0.636514	5.67365	0.869856	4.44104
0.381036	1.71467	0.13289	2.24414	0.5628	7.08095	0.706519	6.89107	0.788518	6.26425	0.514093	6.08643	0.64182	5.71679	0.874011	4.47774
0.382616	1.67956	0.13498	2.24379	0.569396	7.0764	0.710465	6.89755	0.792881	6.3442	0.519731	6.01443	0.647167	5.75964	0.8782	4.51394
0.384165	1.64691	0.137071	2.24343	0.575986	7.06926	0.715241	6.90207	0.796531	6.41141	0.5253	5.94056	0.652553	5.80224	0.882423	4.54973
0.385685	1.61655	0.139161	2.24314	0.582568	7.05968	0.720847	6.90283	0.799445	6.46505	0.5308	5.86496	0.657979	5.84448	0.886678	4.58505
0.387178	1.58834	0.141251	2.24285	0.589141	7.04786	0.727277	6.89779	0.801603	6.50487	0.536229	5.78768	0.663443	5.88626	0.890966	4.61994
0.388645	1.56217	0.14334	2.24256	0.595701	7.03382	0.7337	6.88674	0.802991	6.53056	0.541585	5.7089	0.668947	5.92761	0.895287	4.65443
0.390088	1.53789	0.145429	2.24226	0.602248	7.01772	0.74011	6.86983	0.804996	6.56761	0.546867	5.62882	0.674489	5.96836	0.899639	4.68846
0.39151	1.51541	0.147518	2.24201	0.608778	6.99971	0.746501	6.84749	0.807188	6.60792	0.552074	5.54755	0.680068	6.00848	0.904023	4.7221
0.392912	1.49453	0.149607	2.24177	0.615291	6.97982	0.752869	6.82036	0.81019	6.66305	0.557204	5.46531	0.685685	6.04787	0.908438	4.75533
0.394295	1.47519	0.151696	2.2415	0.621784	6.95816	0.75921	6.78907	0.814024	6.7332	0.562258	5.38219	0.691338	6.08639	0.912311	4.78396
0.395661	1.45731	0.153784	2.24126	0.628257	6.93485	0.76552	6.7543	0.818713	6.81808	0.567233	5.2984	0.697026	6.12403	0.91563	4.8081
0.397011	1.44081	0.155872	2.24103	0.634707	6.90986	0.771796	6.717	0.824289	6.91749	0.572131	5.21418	0.702749	6.16069	0.918388	4.82794
0.398346	1.42555	0.15796	2.2408	0.641132	6.88326	0.778036	6.67795	0.830787	7.03088	0.576949	5.12955	0.708506	6.19619	0.920576	4.84358
0.399498	1.41317	0.160047	2.24062	0.647533	6.85525	0.78424	6.63796	0.837391	7.14277	0.581689	5.04475	0.714295	6.23049	0.92219	4.8549
0.400473	1.40334	0.162135	2.24042	0.653906	6.82575	0.790405	6.59789	0.844097	7.25239	0.58635	4.95998	0.720116	6.26354	0.923225	4.86208
0.401274	1.3956	0.164222	2.2402	0.660252	6.79477	0.796534	6.55845	0.850905	7.35921	0.590932	4.87537	0.725967	6.29522	0.924715	4.87257
0.401904	1.38977	0.166309	2.24003	0.666568	6.76248	0.802626	6.52031	0.85781	7.46261	0.595435	4.79103	0.731846	6.3255	0.926338	4.8839
0.402366	1.38569	0.168396	2.23986	0.672853	6.72882	0.808684	6.48406	0.86481	7.56209	0.599859	4.70707	0.737754	6.35425	0.928551	4.89901
0.40266	1.38321	0.170483	2.23967	0.679106	6.69387	0.814709	6.45012	0.871901	7.6574	0.604206	4.62371	0.743687	6.38141	0.931361	4.91814
0.403083	1.37959	0.17257	2.2395	0.685326	6.65764	0.820703	6.41883	0.879079	7.7483	0.608475	4.54105	0.749645	6.40697	0.934773	4.94113
0.403542	1.37575	0.174656	2.23934	0.691512	6.62019	0.826669	6.39044	0.88634	7.83461	0.612667	4.45915	0.755626	6.43092	0.938795	4.96775
0.404163	1.37083	0.176742	2.23919	0.697662	6.58158	0.832611	6.365	0.893678	7.9163	0.616784	4.37817	0.761628	6.45311	0.943438	4.99797
0.404946	1.36483	0.178829	2.23904	0.703776	6.54173	0.83853	6.34265	0.901091	7.9934	0.620826	4.29816	0.76765	6.47358	0.948108	5.02787
0.405888	1.35809	0.180915	2.23886	0.709852	6.50075	0.84443	6.32334	0.908573	8.06597	0.624793	4.21916	0.773691	6.49234	0.952807	5.05736
0.406988	1.35072	0.183001	2.23873	0.715889	6.45873	0.850313	6.30699	0.916121	8.13411	0.628688	4.14135	0.779748	6.50931	0.957532	5.08646
0.408242	1.34301	0.185086	2.23863	0.721887	6.4156	0.856182	6.29347	0.92373	8.19803	0.63251	4.06476	0.78582	6.52446	0.962285	5.11526
0.40949	1.33596	0.187172	2.23847	0.727844	6.3714	0.86204	6.2826	0.931397	8.25793	0.636262	3.98937	0.791906	6.53785	0.967064	5.14368
0.410732	1.32955	0.189257	2.23835	0.73376	6.32623	0.867889	6.27424	0.939118	8.31396	0.639944	3.91531	0.798003	6.54953	0.971869	5.17174
0.411968	1.32385	0.191343	2.23822	0.739632	6.28013	0.873731	6.26823	0.946889	8.36632	0.643558	3.84261	0.80411	6.5594	0.976701	5.19946
0.413199	1.3188	0.193428	2.23808	0.745462	6.2331	0.879569	6.26438	0.954707	8.41517	0.647104	3.77126	0.810225	6.56745	0.981558	5.2268
0.414425	1.31426	0.195513	2.23801	0.751247	6.18512	0.885404	6.26246	0.96257	8.46077	0.650585	3.70134	0.816348	6.57381	0.98644	5.25384
0.415648	1.31024	0.197598	2.23787	0.756987	6.13634	0.891239	6.2623	0.970473	8.50326	0.654001	3.63283	0.822475	6.57846	0.991348	5.28058
0.416867	1.30676	0.199683	2.23776	0.762681	6.08682	0.897073	6.26369	0.978415	8.54275	0.657354	3.56573	0.828606	6.58141	0.99628	5.30695
0.418083	1.30378	0.201768	2.23767	0.768329	6.03647	0.90291	6.26647	0.986392	8.57945	0.660646	3.5001	0.834739	6.5827	1.00124	5.32003
0.419296	1.30122	0.203853	2.23755	0.77393	5.98544	0.90875	6.27046	0.994402	8.61351	0.663876	3.43593	0.840872	6.58228		
0.420507	1.2991	0.205938	2.23745	0.779482	5.93377	0.914595	6.27553	1.00244	8.62989	0.667048	3.3732	0.847004	6.58024		
0.421717	1.29738	0.208022	2.23737	0.784987	5.88146	0.920444	6.28151			0.670162	3.31195	0.853134	6.57666		
0.422925	1.29598	0.210107	2.23729	0.790442	5.82865	0.926299	6.28823			0.673219	3.25214	0.859259	6.5715		
0.424132	1.29498	0.212191	2.23718	0.795848	5.77529	0.932161	6.29559			0.676222	3.19374	0.865379	6.56482		
0.425338	1.29433	0.214275	2.23708	0.801204	5.72147	0.938031	6.3034			0.679171	3.13682	0.871492	6.55664		
0.426544	1.29394	0.21636	2.237	0.806509	5.66728	0.943907	6.31163			0.682067	3.0813	0.877596	6.54695		
0.427749	1.29389	0.218444	2.23692	0.811764	5.61276	0.949792	6.32007			0.684912	3.02717	0.883691	6.53588		
0.428955	1.29412	0.220528	2.23685	0.816968	5.55788	0.955684	6.32868			0.687708	2.97443	0.889775	6.52342		
0.43016	1.2946	0.222612	2.23677	0.82212	5.50276	0.961584	6.33738			0.690455	2.92309	0.895847	6.50958		
0.431367	1.29531	0.224696	2.2367	0.827222	5.44748	0.967493	6.34598			0.693155	2.87307	0.901905	6.49441		
0.432574	1.29626	0.22678	2.23659	0.832271	5.39204	0.973409	6.35445			0.695808	2.82436	0.907949	6.47793		
0.433782	1.29746	0.228864	2.23653	0.837269	5.33652	0.979334	6.36275			0.698418	2.77701	0.913976	6.46017		
0.434992	1.29883	0.230947	2.23647	0.842215	5.2809	0.985266	6.37079			0.700983	2.73092	0.919986	6.44122		
0.436203	1.3004	0.233031	2.2364	0.847109	5.22529	0.991205	6.37843			0.703506	2.68605	0.925979	6.42105		
0.437415	1.30217	0.235115	2.23633	0.851952	5.16976	0.997151	6.38566			0.705988	2.64249	0.931951	6.39972		
0.438629	1.30412	0.237198	2.23626	0.856743	5.11428	1.0031	6.38916			0.70843	2.60012	0.937904	6.37731		
0.439845	1.30623	0.239282	2.23622	0.861482	5.05889					0.710833	2.55891	0.943835	6.35376		
0.441063	1.30845	0.241365	2.23613	0.866169	5.00369					0.713199	2.51889	0.949743	6.32913		
0.442283	1.31088	0.243448	2.23605	0.870806	4.9487					0.715527	2.48002	0.955628	6.30352		
0.443506	1.31342	0.245532	2.23601	0.875391	4.89388					0.71782	2.44228	0.961489	6.27691		
0.444731	1.31604	0.247615	2.23599	0.879925	4.83938					0.720078	2.40561	0.967325	6.24932		
0.445958	1.31885	0.249698	2.2359	0.884408	4.78517					0.722302	2.37003	0.973134	6.22084		
0.447188	1.32176	0.251781	2.23582	0.888842	4.73122					0.724494	2.33546	0.978917	6.19148		
0.448421	1.32472	0.253864	2.23582	0.893225	4.67766					0.726654	2.30188	0.984671	6.16123		
0.449657	1.32784	0.255948	2.23575	0.897558	4.62448					0.728784	2.26938	0.990397	6.13018		
0.450895	1.33105	0.258031	2.23567	0.901842	4.57167					0.730883	2.23783	0.996094	6.09839		
0.452137	1.33431	0.260113	2.23564	0.906077	4.51929					0.732953	2.20718	1.00176	6.0823		
0.453382	1.33765	0.262196	2.23562	0.910263	4.46733					0.734996	2.17746				
0.454629	1.34109	0.264279	2.23557	0.914401	4.41578					0.737011	2.14865				
0.455881	1.34463	0.266362	2.23547	0.918491	4.36474					0.739	2.12077				
0.457135	1.3482	0.268445	2.23543	0.922534	4.31417					0.740963	2.09368				
0.458393	1.35182	0.270528	2.2354	0.92653	4.26406					0.742901	2.0674				
0.459654	1.35553	0.27261	2.23539	0.93048	4.21447					0.744815	2.04198				
0.460919	1.35929	0.274693	2.23535	0.934383	4.16539					0.746706	2.01734				
0.462187	1.36307	0.276776	2.23525	0.938242	4.11683					0.748574	1.99344				
0.463459	1.36691	0.278858	2.23521	0.942055	4.06882					0.750421	1.97029				
0.464734	1.3708	0.280941	2.23522	0.945823	4.02134					0.752246	1.94787				
0.466013	1.37472	0.283023	2.23519	0.949548	3.97434					0.75405	1.92619				
0.467296	1.3787	0.285106	2.2351	0.953229	3.92792					0.755835	1.90517				
0.468582	1.38267	0.287188	2.23506	0.956867	3.88208					0.7576	1.88481				
0.469872	1.3867	0.28927	2.23507	0.960463	3.83678					0.759347	1.86507				
0.471166	1.39077	0.291353	2.23504	0.964017	3.79205					0.761076	1.84597				
0.472464	1.39482	0.293435	2.23495	0.967529	3.74786					0.762787	1.82752				
0.473765	1.39893	0.295517	2.23491	0.971	3.70419					0.764481	1.80966				
0.47507	1.40307	0.2976	2.23492	0.974431	3.66112					0.766159	1.79234				
0.476379	1.40723	0.299682	2.2349	0.977823	3.61867					0.767821	1.77562				
0.477693	1.41136	0.301764	2.23484	0.981174	3.57672					0.769468	1.75943				
0.479009	1.41551	0.303846	2.23482	0.984487	3.53535					0.771099	1.74371				
0.48033	1.41968	0.305929	2.23477	0.987762	3.49456					0.772717	1.72857				
0.481655	1.42388	0.308011	2.23474	0.990999	3.45431					0.77432	1.71393				
0.482983	1.42811	0.310093	2.23473	0.994199	3.41467					0.77591	1.69976				
0.484316	1.43227	0.312175	2.23469	0.997362	3.37555					0.777488	1.68608				
0.485652	1.43648	0.314257	2.23467	1.00049	3.35611					0.779052	1.6728				
0.486993	1.44071	0.316339	2.23462							0.780605	1.66				
0.488337	1.44494	0.318421	2.2346							0.782146	1.64764				
0.489685	1.44915	0.320503	2.23458							0.783675	1.63567				
0.491037	1.45334	0.322585	2.23454							0.785193	1.62416				
0.492393	1.45756	0.324667	2.23452							0.786701	1.61298				
0.493753	1.46179	0.326749	2.23451							0.788199	1.60223				
0.495117	1.466	0.32883	2.23447							0.789687	1.59183				
