Sym0		Asym0		Sym1		Sym2		Sym3		Asym1		Asym2		Asym3	
458  Points		491  Points		162  Points		125  Points		109  Points		318  Points		137  Points		109  Points	
Freq (MHz)	Vph (m/ms)	Freq (MHz)	Vph (m/ms)	Freq (MHz)	Vph (m/ms)	Freq (MHz)	Vph (m/ms)	Freq (MHz)	Vph (m/ms)	Freq (MHz)	Vph (m/ms)	Freq (MHz)	Vph (m/ms)	Freq (MHz)	Vph (m/ms)
0.007296	8.26151	0.000613366	0.269925	0.279523	728.178	0.504943	566.982	0.559019	3509.07	0.139755	3674.65	0.419282	792.922	0.698802	809.236
0.0149916	8.26063	0.00120858	0.377205	0.279679	212.593	0.505029	277.142	0.559088	512.454	0.139992	144.362	0.419413	287.175	0.698904	389.312
0.0226837	8.25908	0.00199032	0.481248	0.280007	124.599	0.505173	183.434	0.559261	276.493	0.140664	73.9784	0.419666	175.433	0.699079	256.362
0.0303706	8.25687	0.00294583	0.581326	0.280504	88.238	0.505377	137.12	0.559538	189.392	0.141765	50.0384	0.42004	126.371	0.699324	191.144
0.0380503	8.25402	0.00406098	0.676927	0.281171	68.4007	0.505641	109.509	0.559918	144.083	0.143281	38.0579	0.420536	98.8203	0.699642	152.417
0.0457211	8.25052	0.00532054	0.767662	0.282005	55.9274	0.505966	91.1805	0.5604	116.319	0.145197	30.9159	0.421153	81.1899	0.70003	126.771
0.0533811	8.24635	0.00670913	0.853304	0.283005	47.3724	0.506353	78.1318	0.560985	97.5715	0.147494	26.2062	0.42189	68.9481	0.70049	108.541
0.0610283	8.2415	0.00821166	0.933756	0.284167	41.1495	0.506803	68.3719	0.561672	84.0678	0.150151	22.8892	0.422746	59.9585	0.701021	94.9199
0.0686608	8.23597	0.00981376	1.00903	0.28549	36.4266	0.507317	60.7992	0.562459	73.8826	0.153146	20.4423	0.423722	53.0824	0.701624	84.3592
0.0762763	8.22973	0.0115022	1.07924	0.286971	32.7252	0.507898	54.7549	0.563346	65.9303	0.156456	18.5742	0.424815	47.6568	0.702296	75.9339
0.083873	8.22277	0.0132646	1.14455	0.288606	29.7507	0.508546	49.8207	0.564332	59.5522	0.160058	17.1094	0.426024	43.2699	0.703039	69.0576
0.0914484	8.21507	0.0150901	1.20518	0.290391	27.3116	0.509264	45.7181	0.565417	54.3255	0.16393	15.9362	0.427349	39.6522	0.703853	63.3407
0.0990002	8.20661	0.0169691	1.26139	0.292324	25.2783	0.510053	42.2547	0.566599	49.9662	0.168052	14.9801	0.428788	36.62	0.704736	58.5141
0.106526	8.19736	0.0188931	1.31344	0.2944	23.5597	0.510916	39.2933	0.567876	46.2766	0.172402	14.1894	0.43034	34.0436	0.705689	54.3859
0.114023	8.1873	0.0208546	1.36161	0.296615	22.0899	0.511854	36.7334	0.569249	43.115	0.176963	13.5275	0.432002	31.8292	0.70671	50.8159
0.12149	8.1764	0.0228474	1.40618	0.298965	20.8203	0.51287	34.4995	0.570716	40.3769	0.181716	12.9672	0.433775	29.9068	0.707801	47.6988
0.128922	8.16463	0.0248661	1.44743	0.301446	19.714	0.513967	32.5343	0.572276	37.9835	0.186644	12.4886	0.435655	28.2235	0.70896	44.9544
0.136316	8.15195	0.0266426	1.48085	0.304054	18.7425	0.515145	30.7928	0.573927	35.8747	0.191734	12.0763	0.437642	26.7383	0.710187	42.5202
0.143671	8.13833	0.0281679	1.50764	0.306785	17.8838	0.516409	29.2399	0.575669	34.0032	0.19697	11.7184	0.439733	25.4191	0.711482	40.3471
0.150982	8.12372	0.0294356	1.52866	0.309635	17.1201	0.517761	27.8474	0.5775	32.3321	0.20234	11.4057	0.441927	24.2404	0.712843	38.3956
0.158246	8.10809	0.0304416	1.5446	0.3126	16.4372	0.519203	26.5924	0.579418	30.8313	0.207833	11.1308	0.444222	23.1816	0.714272	36.6341
0.165458	8.09138	0.0311831	1.55595	0.315676	15.8238	0.520738	25.4563	0.581424	29.4766	0.212711	10.9173	0.446616	22.2259	0.715766	35.0365
0.172616	8.07355	0.0316584	1.56306	0.318859	15.2702	0.522368	24.4235	0.583515	28.2484	0.21693	10.7519	0.449107	21.3595	0.717326	33.5814
0.179714	8.05455	0.0323426	1.57307	0.322147	14.7687	0.524096	23.4815	0.585691	27.13	0.22046	10.6255	0.451693	20.571	0.718951	32.2508
0.186748	8.03432	0.0330875	1.58367	0.325537	14.3128	0.525925	22.6192	0.58795	26.1079	0.223275	10.5314	0.454372	19.8507	0.72064	31.0297
0.193714	8.0128	0.0341024	1.59764	0.329026	13.8969	0.527857	21.8276	0.590291	25.1705	0.225358	10.4654	0.457141	19.1906	0.722394	29.9055
0.200605	7.98994	0.0353887	1.61461	0.332611	13.5164	0.529895	21.099	0.592712	24.3081	0.226697	10.4245	0.46	18.5837	0.72421	28.8673
0.207417	7.96567	0.0369477	1.63414	0.33629	13.1674	0.532041	20.4267	0.595214	23.5122	0.228629	10.3674	0.462946	18.0243	0.72609	27.9058
0.214144	7.93993	0.0387806	1.65575	0.340063	12.8465	0.534298	19.8049	0.597795	22.7759	0.230738	10.3075	0.465977	17.5072	0.728031	27.0132
0.220781	7.91265	0.0408881	1.67894	0.343928	12.5507	0.536667	19.2287	0.600453	22.093	0.233623	10.2296	0.469091	17.0282	0.730035	26.1824
0.227321	7.88377	0.0429991	1.70056	0.347885	12.2777	0.539152	18.6937	0.603188	21.458	0.237295	10.1364	0.472285	16.5833	0.732099	25.4074
0.233757	7.85324	0.0451127	1.72075	0.351932	12.0251	0.541753	18.1961	0.605999	20.8664	0.241771	10.031	0.475558	16.1692	0.734223	24.683
0.240084	7.82099	0.047228	1.73961	0.356071	11.7912	0.544474	17.7325	0.608884	20.314	0.247066	9.91665	0.478909	15.7832	0.736407	24.0046
0.246295	7.78698	0.0493444	1.75726	0.360302	11.5742	0.547314	17.3001	0.611843	19.7974	0.253197	9.79637	0.482334	15.4225	0.738649	23.368
0.252383	7.75115	0.0514616	1.7738	0.364625	11.3727	0.550276	16.8961	0.614875	19.3133	0.25938	9.68643	0.485832	15.0849	0.74095	22.7696
0.258343	7.71348	0.0535789	1.78932	0.368469	11.2087	0.553361	16.5183	0.617979	18.8589	0.265611	9.58559	0.489401	14.7685	0.743309	22.2063
0.264168	7.67392	0.0556961	1.8039	0.371803	11.0769	0.556569	16.1645	0.621154	18.4317	0.271883	9.49278	0.493039	14.4714	0.745724	21.6752
0.269853	7.63247	0.057813	1.81761	0.374599	10.9731	0.559902	15.8328	0.6244	18.0296	0.278194	9.40709	0.496744	14.1921	0.748196	21.1736
0.275391	7.58914	0.0599294	1.83053	0.376836	10.8942	0.563358	15.5216	0.627716	17.6505	0.284537	9.32773	0.500515	13.9291	0.750723	20.6994
0.280779	7.54392	0.0620451	1.84272	0.378496	10.838	0.566939	15.2294	0.631101	17.2926	0.29091	9.254	0.50435	13.681	0.753305	20.2503
0.286013	7.49687	0.06416	1.85422	0.379564	10.8027	0.570643	14.9546	0.634554	16.9544	0.297308	9.18529	0.508247	13.4469	0.755941	19.8247
0.291088	7.44802	0.0662739	1.86509	0.381109	10.753	0.574471	14.6961	0.638075	16.6344	0.303728	9.12108	0.512205	13.2256	0.75863	19.4207
0.296004	7.39746	0.068387	1.87539	0.3828	10.7002	0.57842	14.4526	0.641664	16.3313	0.310166	9.06089	0.516221	13.0162	0.761372	19.0368
0.300759	7.34525	0.070499	1.88514	0.385121	10.6306	0.58249	14.2232	0.64532	16.0439	0.316618	9.00432	0.520294	12.8178	0.764166	18.6717
0.305352	7.29151	0.0726101	1.89439	0.388089	10.5459	0.586679	14.0069	0.649043	15.7711	0.323083	8.95099	0.524424	12.6296	0.767012	18.3241
0.309784	7.23635	0.0747201	1.90318	0.391728	10.4483	0.590985	13.8026	0.652833	15.512	0.329556	8.90059	0.528608	12.451	0.769908	17.9928
0.314057	7.1799	0.0768291	1.91154	0.396068	10.3402	0.595405	13.6097	0.656689	15.2657	0.336035	8.85281	0.532845	12.2813	0.772853	17.6767
0.318172	7.12228	0.0789372	1.91949	0.401141	10.2239	0.599936	13.4273	0.660612	15.0313	0.342517	8.8074	0.537134	12.1199	0.775848	17.375
0.322134	7.06365	0.0810442	1.92707	0.406313	10.1155	0.604576	13.2548	0.664601	14.8082	0.349	8.76413	0.541473	11.9662	0.778892	17.0866
0.325946	7.00415	0.0831503	1.93429	0.411583	10.0144	0.60932	13.0914	0.668657	14.5956	0.35548	8.72278	0.545862	11.8198	0.781983	16.8108
0.329613	6.94392	0.0852555	1.94119	0.41695	9.92015	0.614167	12.9365	0.672781	14.3929	0.361956	8.68317	0.550299	11.6803	0.785121	16.5469
0.333139	6.8831	0.0873597	1.94778	0.422411	9.83212	0.61911	12.7897	0.676972	14.1995	0.368424	8.64511	0.554204	11.5639	0.788306	16.2941
0.336531	6.82185	0.0894631	1.95409	0.427963	9.74991	0.624147	12.6503	0.681231	14.015	0.374883	8.60847	0.557561	11.4683	0.791537	16.0517
0.339793	6.7603	0.0915657	1.96012	0.433603	9.67308	0.629273	12.5178	0.68556	13.8387	0.38133	8.57309	0.560356	11.3917	0.794812	15.8192
0.342931	6.69856	0.0936674	1.96591	0.439326	9.60121	0.634483	12.3917	0.689958	13.6704	0.387762	8.53884	0.562579	11.3326	0.798132	15.5961
0.345951	6.63678	0.0957683	1.97145	0.445129	9.5339	0.639772	12.2717	0.694427	13.5096	0.394178	8.50562	0.564219	11.29	0.801496	15.3818
0.348859	6.57505	0.0978685	1.97677	0.451007	9.4708	0.645135	12.1573	0.698969	13.3559	0.400575	8.47329	0.565273	11.2631	0.804903	15.1758
0.351661	6.51348	0.099968	1.98188	0.456954	9.41155	0.650566	12.0481	0.703585	13.2089	0.40695	8.44178	0.56679	11.2248	0.808353	14.9778
0.354362	6.45217	0.102067	1.98679	0.462966	9.35584	0.656061	11.9438	0.708276	13.0684	0.413302	8.41099	0.568446	11.1839	0.811844	14.7872
0.356968	6.3912	0.104165	1.99151	0.469038	9.30337	0.661612	11.844	0.713044	12.934	0.419628	8.38082	0.570706	11.1293	0.815377	14.6037
0.359485	6.33064	0.106262	1.99606	0.475164	9.25387	0.666492	11.7604	0.717891	12.8055	0.425926	8.35121	0.573579	11.0619	0.81895	14.427
0.361916	6.27058	0.108359	2.00044	0.481339	9.20707	0.67068	11.6915	0.72282	12.6827	0.432194	8.32208	0.577075	10.9827	0.822563	14.2566
0.364268	6.21106	0.110456	2.00466	0.487559	9.16274	0.674161	11.6361	0.727832	12.5652	0.43843	8.29336	0.581207	10.893	0.826216	14.0924
0.366545	6.15215	0.112551	2.00873	0.493818	9.12067	0.676923	11.5932	0.732931	12.4529	0.444631	8.265	0.585987	10.7941	0.829908	13.9339
0.368751	6.09388	0.114647	2.01266	0.500112	9.08066	0.678959	11.5622	0.738117	12.3456	0.450795	8.23693	0.590809	10.6993	0.833638	13.781
0.37089	6.0363	0.116741	2.01645	0.506436	9.04253	0.680265	11.5426	0.743395	12.2431	0.45692	8.2091	0.595673	10.6084	0.837405	13.6333
0.372968	5.97944	0.118836	2.02011	0.512787	9.00611	0.682144	11.5147	0.748765	12.1452	0.463004	8.18146	0.600577	10.5212	0.84121	13.4906
0.374986	5.92333	0.120929	2.02365	0.519161	8.97124	0.684191	11.4847	0.754231	12.0517	0.469045	8.15396	0.605522	10.4374	0.845052	13.3527
0.37695	5.86799	0.123023	2.02708	0.525553	8.9378	0.68698	11.4446	0.759074	11.9738	0.475041	8.12657	0.610506	10.357	0.84893	13.2193
0.378863	5.81344	0.125116	2.0304	0.53196	8.90566	0.690515	11.3948	0.763262	11.9098	0.48099	8.09924	0.615531	10.2798	0.852843	13.0904
0.380727	5.7597	0.127208	2.03361	0.538379	8.87469	0.694801	11.3361	0.766767	11.8586	0.486889	8.07193	0.620595	10.2056	0.856792	12.9655
0.382545	5.70678	0.1293	2.03672	0.544807	8.84481	0.69984	11.269	0.769565	11.8191	0.492736	8.04462	0.625697	10.1342	0.860775	12.8447
0.384322	5.65469	0.131392	2.03973	0.551241	8.81591	0.705634	11.1944	0.771638	11.7907	0.498531	8.01727	0.630839	10.0656	0.864792	12.7277
0.386058	5.60342	0.133484	2.04265	0.557677	8.78791	0.711433	11.122	0.772971	11.7728	0.50427	7.98986	0.636019	9.99959	0.868843	12.6144
0.387758	5.55299	0.135575	2.04549	0.564114	8.76072	0.717235	11.0517	0.774898	11.7474	0.509953	7.96235	0.641238	9.93609	0.872928	12.5045
0.389422	5.5034	0.137666	2.04824	0.57055	8.73429	0.723033	10.9834	0.777004	11.7202	0.515576	7.93473	0.646494	9.87498	0.877045	12.398
0.391054	5.45464	0.139756	2.05092	0.576981	8.70853	0.728825	10.9169	0.77989	11.6839	0.52114	7.90698	0.651788	9.81614	0.880659	12.3079
0.392655	5.40671	0.141846	2.05351	0.583406	8.6834	0.734605	10.852	0.783575	11.6393	0.526642	7.87907	0.657119	9.75949	0.883759	12.2329
0.394228	5.35961	0.143936	2.05604	0.589823	8.65883	0.740373	10.7887	0.788082	11.5872	0.53208	7.851	0.662487	9.70492	0.886336	12.1721
0.395774	5.31332	0.146026	2.05849	0.59623	8.63478	0.746125	10.7269	0.793443	11.5284	0.537454	7.82275	0.667891	9.65235	0.888381	12.1248
0.397295	5.26785	0.148115	2.06087	0.602624	8.61119	0.75186	10.6665	0.79969	11.464	0.542762	7.79431	0.673331	9.60168	0.88989	12.0905
0.398793	5.22319	0.150204	2.0632	0.609005	8.58804	0.757577	10.6074	0.806039	11.4027	0.548003	7.76567	0.678806	9.55284	0.890858	12.0688
0.40008	5.18491	0.152293	2.06546	0.615371	8.56527	0.763276	10.5495	0.812487	11.3444	0.553176	7.73683	0.684316	9.50574	0.892252	12.0377
0.401165	5.15276	0.154382	2.06765	0.62172	8.54286	0.768955	10.4929	0.819032	11.2889	0.55828	7.70777	0.68986	9.46031	0.893771	12.0043
0.402054	5.12649	0.15647	2.0698	0.62805	8.52076	0.774617	10.4375	0.825673	11.2361	0.563314	7.67851	0.695436	9.41647	0.895843	11.9595
0.402752	5.10593	0.158558	2.07189	0.634361	8.49895	0.780261	10.3832	0.832406	11.1859	0.568278	7.64903	0.701045	9.37416	0.898474	11.9036
0.403263	5.09093	0.160646	2.07392	0.640651	8.4774	0.785889	10.33	0.839227	11.1382	0.573172	7.61935	0.706686	9.3333	0.901671	11.8374
0.403588	5.08137	0.162734	2.0759	0.646918	8.45608	0.791503	10.2779	0.846135	11.0927	0.577994	7.58945	0.712356	9.29383	0.905442	11.7616
0.404055	5.06771	0.164822	2.07784	0.653162	8.43496	0.797103	10.2269	0.853124	11.0493	0.582745	7.55936	0.718056	9.25569	0.909797	11.6768
0.40456	5.05296	0.166909	2.07973	0.659381	8.41404	0.802691	10.177	0.860193	11.008	0.587424	7.52906	0.723785	9.21882	0.914181	11.5945
0.405243	5.03305	0.168996	2.08157	0.665573	8.39327	0.80827	10.128	0.867336	10.9687	0.592032	7.49857	0.72954	9.18315	0.918594	11.5144
0.406102	5.00811	0.171083	2.08337	0.671739	8.37265	0.813841	10.0802	0.87455	10.9311	0.596568	7.46791	0.735321	9.14862	0.923035	11.4365
0.407133	4.97834	0.17317	2.08512	0.677876	8.35215	0.819406	10.0333	0.881833	10.8953	0.601034	7.43706	0.741127	9.1152	0.927505	11.3607
0.408332	4.94392	0.175257	2.08684	0.683983	8.33176	0.824966	9.98745	0.889179	10.861	0.605428	7.40606	0.746956	9.08281	0.932002	11.287
0.409696	4.9051	0.177344	2.08852	0.69006	8.31145	0.830523	9.94258	0.896587	10.8283	0.609752	7.3749	0.752807	9.05141	0.936526	11.2152
0.411047	4.86699	0.17943	2.09015	0.696106	8.29123	0.836079	9.89868	0.904052	10.7969	0.614006	7.34359	0.758678	9.02095	0.941078	11.1454
0.412387	4.82957	0.181516	2.09175	0.702119	8.27106	0.841635	9.85575	0.911572	10.7669	0.61819	7.31216	0.764569	8.99139	0.945656	11.0774
0.413715	4.79284	0.183603	2.09332	0.708098	8.25094	0.847192	9.81375	0.919143	10.7382	0.622306	7.28061	0.770478	8.96267	0.95026	11.0111
0.415034	4.75677	0.185689	2.09485	0.714043	8.23086	0.852752	9.77269	0.926762	10.7106	0.626354	7.24895	0.776402	8.93475	0.954891	10.9466
0.416344	4.72137	0.187774	2.09635	0.719953	8.2108	0.858316	9.73254	0.934427	10.6842	0.630334	7.21719	0.782342	8.9076	0.959547	10.8837
0.417645	4.68661	0.18986	2.09781	0.725827	8.19075	0.863886	9.69328	0.942135	10.6587	0.634248	7.18536	0.788295	8.88116	0.964228	10.8225
0.418939	4.65248	0.191946	2.09925	0.731663	8.17071	0.869461	9.65491	0.949884	10.6343	0.638097	7.15345	0.794259	8.85541	0.968934	10.7627
0.420225	4.61898	0.194031	2.10065	0.737462	8.15066	0.875044	9.6174	0.95767	10.6108	0.641881	7.12149	0.800234	8.8303	0.973665	10.7045
0.421505	4.58608	0.196117	2.10203	0.743221	8.13059	0.880634	9.58073	0.965492	10.5882	0.645601	7.08949	0.806218	8.8058	0.97842	10.6477
0.422779	4.55378	0.198202	2.10337	0.748942	8.11051	0.886232	9.54489	0.973347	10.5664	0.649259	7.05745	0.81221	8.78187	0.9832	10.5923
0.424048	4.52206	0.200287	2.10469	0.754622	8.09039	0.89184	9.50986	0.981233	10.5453	0.652856	7.02539	0.818207	8.75849	0.988003	10.5383
0.425312	4.49092	0.202372	2.10598	0.760261	8.07024	0.897458	9.47562	0.989148	10.525	0.656392	6.99333	0.824209	8.73561	0.99283	10.4856
0.426571	4.46034	0.204457	2.10725	0.765859	8.05004	0.903086	9.44216	0.997089	10.5053	0.659868	6.96126	0.830214	8.71322	0.99768	10.4341
0.427827	4.43031	0.206542	2.10849	0.771415	8.0298	0.908724	9.40945	1.00505	10.4863	0.663286	6.92922	0.836221	8.69128	1.00255	10.3839
0.429079	4.40082	0.208627	2.10971	0.776927	8.00951	0.914373	9.37747			0.666647	6.8972	0.842229	8.66976		
0.430328	4.37185	0.210712	2.1109	0.782397	7.98916	0.920033	9.34622			0.669952	6.86521	0.848235	8.64864		
0.431574	4.3434	0.212797	2.11207	0.787823	7.96875	0.925704	9.31566			0.673202	6.83327	0.854239	8.6279		
0.432818	4.31545	0.214881	2.11322	0.793204	7.94828	0.931386	9.28578			0.676398	6.80139	0.86024	8.60751		
0.434061	4.28801	0.216966	2.11435	0.798541	7.92775	0.93708	9.25656			0.679541	6.76958	0.866236	8.58744		
0.435301	4.26104	0.21905	2.11545	0.803833	7.90714	0.942785	9.22799			0.682633	6.73784	0.872225	8.56769		
0.43654	4.23455	0.221134	2.11654	0.80908	7.88647	0.948502	9.20004			0.685674	6.70619	0.878207	8.54822		
0.437778	4.20853	0.223218	2.1176	0.81428	7.86573	0.954229	9.1727			0.688666	6.67462	0.884181	8.52902		
0.439016	4.18296	0.225303	2.11865	0.819435	7.84492	0.959967	9.14595			0.691609	6.64316	0.890145	8.51007		
0.440253	4.15783	0.227387	2.11967	0.824544	7.82404	0.965716	9.11977			0.694505	6.61181	0.896099	8.49135		
0.441489	4.13314	0.229471	2.12068	0.829606	7.80309	0.971475	9.09414			0.697355	6.58057	0.90204	8.47284		
0.442726	4.10888	0.231555	2.12167	0.834622	7.78207	0.977244	9.06905			0.70016	6.54946	0.907968	8.45454		
0.443963	4.08504	0.233638	2.12265	0.839591	7.76098	0.983023	9.04447			0.702921	6.51848	0.913882	8.43642		
0.4452	4.0616	0.235722	2.1236	0.844513	7.73983	0.988811	9.0204			0.705639	6.48763	0.919781	8.41847		
0.446438	4.03857	0.237806	2.12454	0.849389	7.7186	0.994607	8.99681			0.708315	6.45692	0.925664	8.40068		
0.447677	4.01593	0.23989	2.12546	0.854218	7.69732	1.00041	8.97369			0.71095	6.42636	0.93153	8.38303		
0.448917	3.99367	0.241973	2.12637	0.859	7.67597					0.713545	6.39595	0.937378	8.36551		
0.450158	3.97179	0.244057	2.12727	0.863736	7.65455					0.716101	6.3657	0.943207	8.34812		
0.451401	3.95028	0.24614	2.12814	0.868425	7.63308					0.718619	6.33562	0.949016	8.33083		
0.452644	3.92913	0.248224	2.12901	0.873067	7.61156					0.7211	6.30569	0.954804	8.31365		
0.45389	3.90834	0.250307	2.12986	0.877663	7.58998					0.723545	6.27594	0.960571	8.29656		
0.455137	3.88788	0.252391	2.13069	0.882214	7.56835					0.725955	6.24637	0.966315	8.27954		
0.456386	3.86777	0.254474	2.13151	0.886718	7.54667					0.728331	6.21697	0.972036	8.2626		
0.457637	3.84799	0.256557	2.13232	0.891176	7.52494					0.730673	6.18775	0.977733	8.24573		
0.458891	3.82854	0.25864	2.13312	0.895589	7.50318					0.732983	6.15872	0.983406	8.22891		
0.460146	3.8094	0.260723	2.1339	0.899957	7.48137					0.735261	6.12988	0.989053	8.21214		
0.461404	3.79058	0.262806	2.13467	0.90428	7.45954					0.737509	6.10122	0.994675	8.19542		
0.462664	3.77206	0.264889	2.13543	0.908558	7.43766					0.739726	6.07276	1.00027	8.17873		
0.463927	3.75384	0.266972	2.13618	0.912792	7.41576					0.741915	6.04449				
0.465193	3.73592	0.269055	2.13692	0.916982	7.39384					0.744074	6.01642				
0.466461	3.71828	0.271138	2.13764	0.921128	7.37189					0.746207	5.98855				
0.467732	3.70092	0.273221	2.13835	0.925231	7.34992					0.748312	5.96087				
0.469005	3.68384	0.275304	2.13906	0.929291	7.32794					0.750391	5.9334				
0.470282	3.66704	0.277387	2.13975	0.933309	7.30594					0.752445	5.90613				
0.471562	3.65049	0.27947	2.14043	0.937284	7.28393					0.754474	5.87906				
0.472844	3.63421	0.281552	2.14111	0.941217	7.26192					0.75648	5.8522				
0.47413	3.61818	0.283635	2.14177	0.945109	7.2399					0.758461	5.82554				
0.475419	3.6024	0.285717	2.14242	0.94896	7.21789					0.76042	5.79909				
0.476711	3.58687	0.2878	2.14307	0.95277	7.19587					0.762357	5.77285				
0.478006	3.57158	0.289883	2.1437	0.95654	7.17386					0.764273	5.74681				
0.479304	3.55652	0.291965	2.14433	0.96027	7.15186					0.766168	5.72097				
0.480606	3.5417	0.294048	2.14495	0.96396	7.12988					0.768042	5.69535				
0.481911	3.5271	0.29613	2.14555	0.967612	7.1079					0.769897	5.66993				
0.48322	3.51272	0.298212	2.14615	0.971225	7.08595					0.771733	5.64472				
0.484532	3.49856	0.300295	2.14675	0.9748	7.06401					0.77355	5.61972				
0.485847	3.48462	0.302377	2.14733	0.978337	7.0421					0.77535	5.59492				
0.487166	3.47088	0.30446	2.14791	0.981837	7.02021					0.777132	5.57033				
0.488488	3.45735	0.306542	2.14848	0.9853	6.99835					0.778896	5.54594				
0.489814	3.44403	0.308624	2.14904	0.988727	6.97652					0.780645	5.52176				
0.491143	3.4309	0.310706	2.14959	0.992117	6.95472					0.782377	5.49778				
0.492476	3.41796	0.312789	2.15014	0.995472	6.93296					0.784094	5.47401				
0.493812	3.40522	0.314871	2.15067	0.998792	6.91124					0.785796	5.45044				
0.495152	3.39266	0.316953	2.15121	1.00208	6.88955					0.787484	5.42707				
0.496495	3.38028	0.319035	2.15173							0.789157	5.4039				
0.497842	3.36809	0.321117	2.15225							0.790816	5.38094				
0.499193	3.35607	0.323199	2.15276							0.792462	5.35817				
0.500547	3.34423	0.325281	2.15327							0.794096	5.3356				
0.501905	3.33256	0.327363	2.15377							0.795717	5.31323				
