Sym0		Asym0		Sym1		Sym2		Sym3		Sym4		Asym1		Asym2		Asym3	
466  Points		497  Points		223  Points		190  Points		177  Points		123  Points		328  Points		202  Points		165  Points	
Freq (MHz)	Vgr (m/ms)	Freq (MHz)	Vgr (m/ms)	Freq (MHz)	Vgr (m/ms)	Freq (MHz)	Vgr (m/ms)	Freq (MHz)	Vgr (m/ms)	Freq (MHz)	Vgr (m/ms)	Freq (MHz)	Vgr (m/ms)	Freq (MHz)	Vgr (m/ms)	Freq (MHz)	Vgr (m/ms)
0.00153049	5.39064	4.97567e-005	0.197172	0.279509	0.0473808	0.478957	0.0282359	0.559023	0.0476813	0.838535	0.037995	0.139767	0.185884	0.419266	0.0483598	0.698786	0.0483541
0.00655292	5.39049	0.000233461	0.268911	0.279553	0.0848078	0.478984	0.0391706	0.559067	0.0712828	0.838571	0.0519786	0.139941	0.293317	0.419311	0.0762872	0.698831	0.064498
0.0115751	5.39005	0.000550842	0.410959	0.279667	0.159662	0.47903	0.0611347	0.559155	0.118503	0.838632	0.0799402	0.140314	0.506998	0.419408	0.132164	0.698906	0.0968163
0.0165967	5.38931	0.000999238	0.54967	0.279851	0.234371	0.479098	0.0832367	0.559288	0.165703	0.838719	0.107885	0.140885	0.717563	0.419558	0.18796	0.699012	0.129153
0.0216175	5.38834	0.00157509	0.684051	0.280104	0.308788	0.479185	0.105468	0.559464	0.212788	0.838833	0.135796	0.141651	0.923872	0.419759	0.243669	0.699147	0.161454
0.0266373	5.38713	0.00227389	0.813138	0.280426	0.382915	0.479294	0.127812	0.559684	0.25979	0.838973	0.163712	0.142607	1.12489	0.420012	0.299277	0.699312	0.193682
0.0316558	5.3856	0.00309029	0.936255	0.280817	0.456683	0.479424	0.150307	0.559948	0.306699	0.839138	0.191639	0.143747	1.31966	0.420316	0.354755	0.699508	0.225913
0.0366727	5.38384	0.0040185	1.05292	0.281277	0.529951	0.479574	0.173032	0.560256	0.353423	0.83933	0.219515	0.145066	1.50757	0.420673	0.41012	0.699733	0.258147
0.041688	5.38181	0.00505229	1.16277	0.281805	0.602731	0.479746	0.195995	0.560607	0.399996	0.839547	0.247362	0.146556	1.68804	0.42108	0.46526	0.699989	0.290315
0.0467011	5.37949	0.0061852	1.26558	0.2824	0.674903	0.479939	0.219218	0.561001	0.446414	0.839791	0.275224	0.148211	1.86067	0.42154	0.520242	0.700274	0.322425
0.0517121	5.3769	0.00741056	1.36125	0.283062	0.746371	0.480154	0.242738	0.561439	0.492593	0.84006	0.303042	0.150023	2.02524	0.42205	0.57498	0.70059	0.354492
0.0567204	5.37399	0.00872174	1.44984	0.283791	0.817163	0.480392	0.26656	0.561919	0.538589	0.840355	0.330773	0.151985	2.18176	0.422611	0.629452	0.700935	0.386472
0.0617259	5.37081	0.0101122	1.53151	0.284585	0.88719	0.480651	0.290693	0.562442	0.584366	0.840676	0.358475	0.154089	2.33015	0.423223	0.683683	0.70131	0.418426
0.0667283	5.36731	0.0115755	1.60651	0.285444	0.956345	0.480933	0.31523	0.563008	0.62985	0.841023	0.386196	0.156327	2.47056	0.423885	0.737654	0.701715	0.450326
0.0717273	5.36354	0.0131057	1.67516	0.286367	1.02456	0.481239	0.340133	0.563616	0.675116	0.841396	0.413877	0.158693	2.60329	0.424597	0.791324	0.702149	0.482121
0.0767227	5.35943	0.014697	1.73773	0.287353	1.09186	0.481567	0.365477	0.564266	0.72009	0.841794	0.441481	0.161178	2.72863	0.42536	0.84461	0.702613	0.513849
0.081714	5.35494	0.0163438	1.79455	0.288402	1.15819	0.48192	0.391262	0.564958	0.764774	0.842219	0.469004	0.163437	2.83211	0.426171	0.897569	0.703106	0.545518
0.086701	5.35015	0.018041	1.84608	0.289511	1.22346	0.482296	0.41749	0.565691	0.809173	0.842668	0.496511	0.165426	2.91618	0.427032	0.950168	0.703629	0.57707
0.0916834	5.34502	0.0197838	1.89274	0.290682	1.28765	0.482698	0.444238	0.566466	0.853219	0.843144	0.523985	0.167115	2.98286	0.427942	1.00241	0.704182	0.608532
0.0966609	5.33946	0.0215679	1.93478	0.291911	1.35077	0.483124	0.471441	0.567281	0.896927	0.843645	0.551395	0.168476	3.03389	0.4289	1.05423	0.704763	0.639963
0.101633	5.33355	0.023389	1.97258	0.293199	1.4127	0.483576	0.499186	0.568137	0.940324	0.844171	0.578748	0.169492	3.07038	0.429906	1.10566	0.705374	0.671257
0.106599	5.32728	0.0252436	2.00659	0.294543	1.47342	0.484054	0.527503	0.569033	0.983391	0.844723	0.60599	0.170148	3.09334	0.43096	1.15666	0.706014	0.702423
0.11156	5.32054	0.0271281	2.03709	0.295944	1.53299	0.484559	0.556379	0.569969	1.02609	0.8453	0.633226	0.1711	3.12577	0.432061	1.20716	0.706683	0.733482
0.116514	5.31335	0.0290395	2.06441	0.2974	1.59132	0.485091	0.585786	0.570945	1.06843	0.845903	0.660379	0.172146	3.16021	0.43321	1.25727	0.707381	0.764472
0.121461	5.30571	0.0309749	2.08881	0.298909	1.64845	0.485651	0.615816	0.57196	1.11041	0.846531	0.687439	0.173587	3.20589	0.434404	1.30687	0.708108	0.795325
0.1264	5.2976	0.0329317	2.11057	0.300472	1.70432	0.486238	0.646505	0.573014	1.15204	0.847184	0.714459	0.175438	3.26166	0.435645	1.35597	0.708863	0.826048
0.131332	5.28901	0.0349077	2.12999	0.302085	1.75895	0.486855	0.677782	0.574107	1.19325	0.847862	0.7414	0.177718	3.32642	0.436931	1.40459	0.709647	0.856659
0.136256	5.27989	0.0369007	2.14723	0.303749	1.81231	0.487501	0.70972	0.575238	1.23406	0.848566	0.768257	0.180449	3.39882	0.438262	1.45268	0.710459	0.88712
0.141171	5.2702	0.0389088	2.16252	0.305462	1.8644	0.488178	0.742321	0.576407	1.27453	0.849294	0.795016	0.183654	3.47745	0.439638	1.5003	0.7113	0.9175
0.146076	5.25992	0.0409304	2.17611	0.307223	1.91525	0.488885	0.77559	0.577613	1.3146	0.850047	0.821727	0.186929	3.55155	0.441058	1.54735	0.712169	0.947718
0.150972	5.24902	0.0429638	2.18813	0.309031	1.96496	0.489623	0.809535	0.578856	1.35431	0.850825	0.848343	0.190272	3.62134	0.442521	1.59385	0.713066	0.977758
0.155857	5.23748	0.0447443	2.19751	0.310644	2.00728	0.490393	0.844173	0.580136	1.39359	0.851628	0.874843	0.193677	3.68715	0.444028	1.63982	0.713991	1.00766
0.160731	5.22523	0.0462679	2.2047	0.312045	2.04263	0.491196	0.879538	0.581453	1.43245	0.852455	0.901254	0.197142	3.74916	0.445577	1.68525	0.714944	1.03744
0.165594	5.2123	0.0475313	2.21013	0.313223	2.07138	0.492032	0.915624	0.582806	1.47099	0.853307	0.927637	0.200663	3.80764	0.447168	1.73012	0.715924	1.06712
0.170444	5.1986	0.0485324	2.21428	0.314165	2.09384	0.492902	0.95242	0.584194	1.5091	0.854184	0.953889	0.204237	3.8628	0.448801	1.77438	0.716932	1.09659
0.175281	5.18402	0.0492697	2.21692	0.314865	2.11006	0.493807	0.989905	0.585618	1.5468	0.855085	0.980026	0.207861	3.91485	0.450474	1.81807	0.717967	1.12587
0.180104	5.16863	0.049742	2.21857	0.315315	2.12041	0.494747	1.02818	0.587076	1.58412	0.85601	1.00608	0.211532	3.96398	0.452188	1.86121	0.71903	1.15506
0.184912	5.15235	0.0504216	2.22105	0.315967	2.13526	0.495723	1.06723	0.588569	1.62103	0.856959	1.03204	0.215248	4.0104	0.453942	1.90376	0.72012	1.18407
0.189705	5.13511	0.051161	2.2235	0.31668	2.15118	0.496735	1.10695	0.590097	1.65757	0.857933	1.05788	0.219005	4.05427	0.455736	1.94573	0.721236	1.21286
0.194481	5.1168	0.052168	2.22665	0.317658	2.17257	0.497785	1.14742	0.591658	1.69373	0.858931	1.08363	0.222802	4.09569	0.457568	1.98711	0.72238	1.2415
0.199239	5.09741	0.0534434	2.23032	0.318909	2.19928	0.498873	1.18867	0.593253	1.72951	0.859952	1.10929	0.226637	4.13482	0.459439	2.02791	0.72355	1.27002
0.203979	5.07692	0.0549886	2.2344	0.320442	2.23116	0.5	1.23067	0.594881	1.76489	0.860998	1.13481	0.230507	4.17185	0.461347	2.06813	0.724746	1.29833
0.208699	5.05522	0.0568045	2.23868	0.322269	2.26777	0.501167	1.27337	0.596542	1.79984	0.862067	1.16023	0.234411	4.20685	0.463292	2.1077	0.725969	1.32648
0.213399	5.03218	0.0588924	2.24296	0.324401	2.30887	0.502373	1.31678	0.598235	1.83443	0.86316	1.18551	0.238346	4.23995	0.465274	2.1467	0.727218	1.35442
0.218076	5.00776	0.060984	2.24668	0.326571	2.34916	0.50362	1.36098	0.59996	1.86868	0.864276	1.21072	0.242311	4.27125	0.467293	2.18516	0.728493	1.38217
0.22273	4.98194	0.0630789	2.24985	0.328779	2.38864	0.504909	1.40588	0.601717	1.90253	0.865416	1.23581	0.246305	4.30079	0.469346	2.22302	0.729794	1.40978
0.22736	4.95461	0.0651764	2.25258	0.331022	2.42731	0.50624	1.45144	0.603505	1.93604	0.866579	1.26079	0.250325	4.32877	0.471164	2.25553	0.73112	1.43716
0.231963	4.92565	0.0672763	2.25489	0.333302	2.46529	0.507614	1.49766	0.605324	1.96913	0.867765	1.28562	0.254371	4.35525	0.472735	2.28291	0.732472	1.46438
0.236538	4.89499	0.0693781	2.25678	0.335616	2.5027	0.509031	1.54461	0.607174	2.00184	0.868974	1.31031	0.258441	4.38021	0.474048	2.30532	0.733849	1.49143
0.241084	4.86252	0.0714816	2.25838	0.337965	2.5396	0.510302	1.586	0.609055	2.03423	0.870207	1.33494	0.262533	4.40379	0.475095	2.32288	0.735251	1.51821
0.245599	4.8282	0.0735864	2.2597	0.340348	2.57611	0.511412	1.62165	0.610965	2.06627	0.871462	1.35944	0.266647	4.42609	0.47587	2.33555	0.736678	1.54482
0.250081	4.79192	0.0756923	2.26072	0.342765	2.61234	0.512348	1.65142	0.612905	2.09791	0.87274	1.38376	0.270781	4.44712	0.476369	2.34372	0.738129	1.57131
0.254528	4.75351	0.077799	2.26156	0.345216	2.64837	0.513101	1.67508	0.614874	2.12919	0.87404	1.408	0.274934	4.46694	0.477088	2.35551	0.739606	1.59754
0.258938	4.713	0.0799064	2.26217	0.3477	2.68429	0.513661	1.69259	0.616872	2.16017	0.875363	1.43209	0.279104	4.48564	0.477874	2.36809	0.741106	1.62357
0.26331	4.6703	0.0820143	2.26262	0.350218	2.7203	0.514023	1.70382	0.618899	2.19078	0.876709	1.45603	0.283292	4.50323	0.478949	2.3851	0.742631	1.64941
0.267641	4.62524	0.0841226	2.26295	0.352769	2.75647	0.514547	1.72003	0.620955	2.22101	0.878077	1.47989	0.287496	4.51979	0.48032	2.40642	0.74418	1.67501
0.271929	4.57784	0.0862311	2.26308	0.355354	2.79291	0.515122	1.73776	0.623038	2.25095	0.879467	1.50359	0.291714	4.53536	0.481995	2.43201	0.745752	1.70044
0.276171	4.528	0.0883396	2.26311	0.357974	2.8298	0.515914	1.76191	0.625149	2.28057	0.880878	1.52719	0.295947	4.54995	0.483982	2.46156	0.747348	1.72566
0.280366	4.4757	0.0904481	2.26305	0.360627	2.86725	0.516931	1.79266	0.627288	2.30978	0.882312	1.55064	0.300193	4.56362	0.486291	2.4949	0.748968	1.75068
0.284511	4.42091	0.0925565	2.26287	0.363316	2.90535	0.518185	1.83013	0.629453	2.33869	0.883768	1.5739	0.304451	4.57639	0.488631	2.52772	0.75061	1.77553
0.288604	4.36363	0.0946647	2.26264	0.366041	2.94432	0.519689	1.8744	0.631362	2.36369	0.885245	1.59705	0.30872	4.5883	0.491001	2.56003	0.752276	1.80012
0.292642	4.30386	0.0967727	2.26238	0.368803	2.98424	0.521459	1.92556	0.633005	2.38481	0.886744	1.62013	0.313001	4.59939	0.493401	2.59178	0.753965	1.82452
0.296624	4.24166	0.0988804	2.26202	0.371602	3.02515	0.523277	1.97711	0.634375	2.40209	0.888264	1.643	0.317291	4.60973	0.49583	2.623	0.755676	1.84872
0.300546	4.17711	0.100988	2.26163	0.37444	3.06725	0.525143	2.02907	0.635465	2.41558	0.889805	1.66574	0.32159	4.61922	0.498289	2.65366	0.75741	1.87266
0.304407	4.11032	0.103095	2.26117	0.377318	3.1106	0.527058	2.08134	0.636271	2.42565	0.891368	1.68837	0.325898	4.62795	0.500775	2.68383	0.759166	1.89644
0.308205	4.04142	0.105201	2.26069	0.380236	3.15523	0.529021	2.13388	0.636788	2.43202	0.892951	1.71085	0.330214	4.63602	0.50329	2.71345	0.760943	1.92006
0.311938	3.9705	0.107307	2.26023	0.383197	3.20128	0.531034	2.18659	0.637534	2.44097	0.894556	1.73318	0.334537	4.64339	0.505831	2.74254	0.762743	1.94341
0.315604	3.89786	0.109413	2.25971	0.386201	3.2487	0.533096	2.2395	0.638348	2.45087	0.896181	1.75536	0.338866	4.65004	0.5084	2.77118	0.764565	1.96652
0.319201	3.82371	0.111518	2.25915	0.389251	3.29753	0.535207	2.29258	0.63946	2.46421	0.897827	1.77738	0.343202	4.65596	0.510995	2.79931	0.766408	1.98946
0.322729	3.74821	0.113623	2.25858	0.392346	3.34776	0.537368	2.34566	0.640875	2.48087	0.899493	1.79929	0.347542	4.6613	0.513616	2.82696	0.768272	2.0122
0.326186	3.6717	0.115727	2.25804	0.395489	3.39928	0.539578	2.3988	0.642599	2.50103	0.90118	1.82107	0.351887	4.66599	0.516263	2.85415	0.770157	2.03475
0.329571	3.59448	0.11783	2.25748	0.39868	3.4521	0.541837	2.45187	0.644639	2.52439	0.902886	1.84266	0.356237	4.67002	0.518935	2.88086	0.771817	2.0542
0.332884	3.51681	0.119933	2.25686	0.401921	3.50602	0.544147	2.50485	0.647004	2.55088	0.904613	1.86416	0.36059	4.6735	0.521631	2.90707	0.773245	2.07065
0.335712	3.44903	0.122036	2.2563	0.405213	3.56091	0.546505	2.55775	0.649393	2.57713	0.90636	1.88547	0.364945	4.67633	0.524352	2.93288	0.774434	2.08415
0.338079	3.39128	0.124138	2.25576	0.408557	3.61664	0.548913	2.61042	0.651806	2.60307	0.908127	1.90664	0.369303	4.67856	0.527096	2.95827	0.775379	2.0949
0.340006	3.34365	0.126239	2.2552	0.411952	3.67295	0.551369	2.66282	0.654243	2.62872	0.909913	1.92767	0.373663	4.68022	0.529864	2.9832	0.776078	2.10269
0.341511	3.30616	0.12834	2.25459	0.415401	3.72971	0.553875	2.71492	0.656704	2.65413	0.911719	1.94856	0.378024	4.68131	0.532655	3.00775	0.776526	2.10757
0.342606	3.27868	0.13044	2.25403	0.418902	3.78662	0.556428	2.76671	0.659189	2.67926	0.913544	1.96932	0.382386	4.68185	0.535469	3.03189	0.777172	2.11469
0.343302	3.26116	0.13254	2.25349	0.422457	3.84341	0.55903	2.81813	0.661697	2.70409	0.915388	1.98989	0.386749	4.68179	0.538305	3.0556	0.777877	2.12247
0.344297	3.23603	0.134639	2.25293	0.426064	3.89994	0.561679	2.86908	0.664227	2.72866	0.917252	2.01031	0.39111	4.68118	0.541162	3.07896	0.77884	2.13295
0.345369	3.20884	0.136738	2.2524	0.429724	3.95589	0.564376	2.91956	0.666781	2.75296	0.919134	2.03064	0.395471	4.68003	0.544042	3.10196	0.780064	2.1461
0.346813	3.17211	0.138836	2.25187	0.433435	4.011	0.56712	2.96952	0.669357	2.77701	0.921036	2.05078	0.399831	4.67832	0.546943	3.12455	0.781555	2.1619
0.348615	3.126	0.140934	2.25135	0.437198	4.06506	0.56991	3.01889	0.671956	2.80083	0.922956	2.07078	0.404189	4.67607	0.549864	3.14683	0.783318	2.18032
0.35076	3.07101	0.143032	2.25084	0.44101	4.11788	0.572745	3.06767	0.674576	2.82438	0.924644	2.0881	0.408544	4.6733	0.552806	3.16881	0.785359	2.20126
0.353227	3.00751	0.145128	2.25032	0.444871	4.16926	0.575626	3.11587	0.677219	2.84769	0.926094	2.10278	0.412897	4.66997	0.555769	3.19046	0.78742	2.22202
0.355995	2.93614	0.147225	2.24981	0.448779	4.21902	0.578551	3.1634	0.679883	2.87074	0.927301	2.11481	0.417246	4.66608	0.558751	3.21176	0.7895	2.24258
0.358698	2.86654	0.149321	2.24937	0.452733	4.26707	0.58152	3.2102	0.682568	2.89358	0.92826	2.12437	0.421592	4.66164	0.561754	3.23277	0.791599	2.26289
0.361337	2.79893	0.151416	2.24889	0.45673	4.31326	0.584533	3.25627	0.685275	2.9162	0.928968	2.13139	0.425933	4.65671	0.564775	3.25353	0.793716	2.28305
0.363914	2.73341	0.153511	2.2484	0.46077	4.35741	0.587588	3.30165	0.688002	2.93858	0.929423	2.13578	0.430269	4.65124	0.567816	3.27402	0.795853	2.30305
0.36643	2.67004	0.155606	2.24797	0.46485	4.39962	0.590685	3.34627	0.69075	2.96071	0.930078	2.14213	0.4346	4.64517	0.570876	3.29422	0.798008	2.32283
0.368889	2.60891	0.1577	2.24753	0.468968	4.43977	0.593824	3.39011	0.693519	2.98266	0.930791	2.14904	0.438925	4.63863	0.573955	3.31418	0.800181	2.34235
0.371292	2.55007	0.159794	2.24709	0.473123	4.47776	0.597002	3.43317	0.696308	3.00443	0.931766	2.15841	0.443244	4.63151	0.577052	3.33393	0.802373	2.36174
0.373641	2.49355	0.161887	2.24666	0.477312	4.51367	0.600221	3.47538	0.699117	3.02594	0.933005	2.17023	0.447555	4.62381	0.580167	3.3534	0.804582	2.38099
0.375938	2.43933	0.16398	2.24625	0.481534	4.54755	0.603478	3.51678	0.701947	3.04728	0.934512	2.18445	0.45186	4.61564	0.5833	3.37273	0.806809	2.40003
0.378186	2.38739	0.166073	2.24587	0.485786	4.57936	0.606774	3.5574	0.704796	3.06846	0.936292	2.20098	0.456156	4.60687	0.586452	3.39188	0.809054	2.41885
0.380387	2.33772	0.168165	2.24546	0.490067	4.60911	0.610107	3.59719	0.707664	3.08941	0.938352	2.21985	0.460444	4.59753	0.589621	3.41076	0.811317	2.43749
0.382542	2.2903	0.170257	2.24511	0.494375	4.63691	0.613477	3.63613	0.710553	3.11018	0.940429	2.23859	0.464723	4.58767	0.592807	3.42954	0.813596	2.45597
0.384655	2.24505	0.172349	2.24475	0.498707	4.66279	0.616883	3.67424	0.71346	3.13074	0.942523	2.25715	0.468993	4.57724	0.596011	3.44819	0.815893	2.47429
0.386726	2.20188	0.17444	2.24435	0.503063	4.68686	0.620324	3.7115	0.716386	3.15117	0.944635	2.27558	0.473252	4.56624	0.599233	3.46664	0.818207	2.49245
0.388758	2.16082	0.176531	2.244	0.507441	4.70911	0.623799	3.74796	0.719332	3.17145	0.946763	2.29384	0.477501	4.5547	0.602471	3.48498	0.820537	2.5104
0.390752	2.12175	0.178621	2.24368	0.511838	4.72961	0.627307	3.78359	0.722296	3.19155	0.948909	2.31198	0.481739	4.54256	0.605726	3.50323	0.822885	2.5282
0.392711	2.08457	0.180712	2.24338	0.516254	4.74854	0.630849	3.81839	0.725279	3.21153	0.951071	2.32999	0.485966	4.52986	0.608999	3.52133	0.825248	2.54589
0.394636	2.04924	0.182802	2.24304	0.520686	4.76585	0.634423	3.85238	0.72828	3.23133	0.953251	2.34786	0.49018	4.51663	0.612288	3.53935	0.827629	2.56334
0.39653	2.01572	0.184891	2.24269	0.525134	4.7816	0.638028	3.88553	0.7313	3.25097	0.955446	2.36554	0.494382	4.50272	0.615594	3.5573	0.830025	2.58067
0.398393	1.98391	0.186981	2.2424	0.529596	4.79592	0.641663	3.91789	0.734338	3.2705	0.957658	2.3831	0.498571	4.4883	0.618917	3.57513	0.832437	2.59787
0.400227	1.95369	0.18907	2.24211	0.534071	4.80891	0.645328	3.94948	0.737394	3.28993	0.959887	2.40052	0.502745	4.47332	0.622256	3.59295	0.834866	2.61485
0.402033	1.9251	0.191159	2.24182	0.538557	4.8206	0.649022	3.98026	0.740469	3.3092	0.962132	2.41776	0.506906	4.4577	0.625612	3.61072	0.83731	2.6317
0.403814	1.89798	0.193247	2.24153	0.543054	4.83099	0.652745	4.01026	0.743561	3.32836	0.964392	2.43492	0.511052	4.44155	0.628984	3.62843	0.83977	2.64843
0.40557	1.87227	0.195335	2.24124	0.547559	4.84017	0.656495	4.0395	0.746671	3.34743	0.966669	2.45192	0.515182	4.42479	0.632373	3.64611	0.842245	2.66504
0.407302	1.84795	0.197423	2.24098	0.552073	4.84824	0.660272	4.06797	0.749798	3.36637	0.968961	2.46873	0.519297	4.40744	0.635778	3.66374	0.844736	2.68147
0.409013	1.82491	0.199511	2.24074	0.556594	4.85525	0.664075	4.09571	0.752943	3.38525	0.971269	2.48545	0.523395	4.38953	0.6392	3.68134	0.847242	2.69782
0.410703	1.80314	0.201599	2.24048	0.56112	4.8612	0.667904	4.1227	0.756106	3.40403	0.973592	2.50205	0.527476	4.37099	0.642638	3.69897	0.849763	2.71397
0.412373	1.78255	0.203686	2.2402	0.565652	4.86616	0.671757	4.14897	0.759286	3.42273	0.975931	2.51848	0.53154	4.3519	0.646093	3.71661	0.852299	2.73
0.414025	1.7631	0.205773	2.23999	0.570188	4.87021	0.675635	4.17452	0.762484	3.44134	0.978285	2.53475	0.535586	4.33228	0.649564	3.73418	0.85485	2.74596
0.415658	1.7447	0.20786	2.23977	0.574727	4.87337	0.679536	4.19934	0.765699	3.45991	0.980655	2.55091	0.539613	4.31207	0.653051	3.75176	0.857416	2.76177
0.417276	1.72733	0.209947	2.23951	0.579269	4.87565	0.68346	4.22355	0.768931	3.47842	0.983039	2.56693	0.543621	4.29124	0.656555	3.76937	0.859996	2.77745
0.418877	1.71095	0.212033	2.23928	0.583812	4.87715	0.687406	4.24704	0.772181	3.49683	0.985438	2.58282	0.547609	4.26987	0.660075	3.78697	0.862591	2.79301
0.420464	1.69548	0.214119	2.23909	0.588357	4.87787	0.691374	4.26981	0.775447	3.51527	0.987851	2.59856	0.551577	4.24802	0.663611	3.80459	0.865201	2.80848
0.422037	1.68089	0.216205	2.23888	0.592902	4.87778	0.695363	4.29196	0.778731	3.53364	0.99028	2.6142	0.555525	4.2256	0.667164	3.82219	0.867824	2.82383
0.423596	1.66715	0.218291	2.23867	0.597446	4.87701	0.699372	4.31343	0.782032	3.55195	0.992723	2.62967	0.559451	4.20259	0.670733	3.83978	0.870462	2.83905
0.425143	1.65421	0.220377	2.23845	0.601989	4.8756	0.7034	4.33428	0.78535	3.57029	0.99518	2.64498	0.563356	4.17908	0.674319	3.8574	0.873115	2.85421
0.426678	1.64202	0.222462	2.23823	0.606531	4.8735	0.707448	4.35448	0.788685	3.58858	0.997651	2.66022	0.567238	4.15509	0.677921	3.875	0.875781	2.86929
0.428203	1.63062	0.224548	2.23805	0.611071	4.87073	0.711514	4.37407	0.792037	3.60688	1.00014	2.66782	0.571098	4.13061	0.68154	3.89255	0.878461	2.88423
0.429717	1.61986	0.226633	2.23789	0.615607	4.86741	0.715599	4.39305	0.795406	3.62522			0.574935	4.10566	0.685175	3.91012	0.881155	2.89906
0.431221	1.60976	0.228718	2.23773	0.62014	4.86351	0.7197	4.4114	0.798792	3.64351			0.578749	4.08022	0.688826	3.92765	0.883863	2.91384
0.432717	1.60031	0.230803	2.23754	0.62467	4.85903	0.723819	4.42915	0.802195	3.66185			0.582538	4.05432	0.692493	3.94514	0.886585	2.92855
0.434203	1.59142	0.232887	2.23734	0.629195	4.85398	0.727953	4.4463	0.805615	3.68021			0.586304	4.028	0.696177	3.96259	0.88932	2.94316
0.435682	1.58312	0.234972	2.23716	0.633715	4.84841	0.732104	4.4629	0.809053	3.69862			0.590044	4.00129	0.699877	3.97997	0.892069	2.95768
