Sym0		Asym0		Sym1		Sym2		Sym3		Sym4		Asym1		Asym2		Asym3	
466  Points		495  Points		227  Points		195  Points		182  Points		126  Points		329  Points		206  Points		168  Points	
Freq (MHz)	Vgr (m/ms)	Freq (MHz)	Vgr (m/ms)	Freq (MHz)	Vgr (m/ms)	Freq (MHz)	Vgr (m/ms)	Freq (MHz)	Vgr (m/ms)	Freq (MHz)	Vgr (m/ms)	Freq (MHz)	Vgr (m/ms)	Freq (MHz)	Vgr (m/ms)	Freq (MHz)	Vgr (m/ms)
0.00446901	5.27444	0.00047438	0.44698	0.279509	0.0406465	0.477201	0.0237925	0.559021	0.0434871	0.838535	0.0367596	0.139764	0.168558	0.419265	0.0442827	0.698785	0.0461726
0.00938318	5.27426	0.000890829	0.51441	0.279546	0.0763428	0.477223	0.0343718	0.559062	0.0661061	0.838569	0.0501967	0.139921	0.272055	0.419307	0.0710125	0.698828	0.0615882
0.014297	5.27372	0.00143293	0.647048	0.279651	0.14769	0.477265	0.0554897	0.559145	0.111331	0.838629	0.0769582	0.140271	0.477959	0.419398	0.124468	0.6989	0.0924539
0.0192102	5.27293	0.00209653	0.774848	0.279822	0.218899	0.477326	0.076705	0.559269	0.156518	0.838713	0.103675	0.140811	0.681026	0.419539	0.177913	0.699001	0.12335
0.0241225	5.27194	0.00287677	0.897148	0.280059	0.289906	0.477407	0.0980418	0.559436	0.201627	0.838822	0.130447	0.14154	0.880103	0.419729	0.231264	0.69913	0.154235
0.0290338	5.27068	0.00376827	1.01335	0.280362	0.360656	0.477509	0.119475	0.559645	0.246655	0.838956	0.157185	0.142451	1.07428	0.41997	0.284497	0.699288	0.185097
0.0339439	5.26919	0.00476505	1.12309	0.280731	0.431037	0.47763	0.141102	0.559896	0.291593	0.839115	0.183856	0.143541	1.26268	0.420259	0.337643	0.699475	0.215911
0.0388524	5.26746	0.00586101	1.22609	0.281165	0.500975	0.477772	0.162895	0.560189	0.336354	0.839298	0.210536	0.144804	1.44458	0.420599	0.390616	0.69969	0.246706
0.0437592	5.26547	0.00704973	1.32232	0.281664	0.570465	0.477934	0.184875	0.560523	0.380977	0.839507	0.237236	0.146233	1.6195	0.420987	0.44346	0.699935	0.27746
0.048664	5.26325	0.00832501	1.41179	0.282228	0.639424	0.478116	0.207082	0.560898	0.425472	0.83974	0.263903	0.147822	1.78704	0.421425	0.496122	0.700207	0.308133
0.0535667	5.26077	0.00968044	1.49449	0.282856	0.707763	0.47832	0.229597	0.561316	0.469784	0.839999	0.290504	0.149563	1.94699	0.421912	0.548565	0.700509	0.33879
0.0584669	5.25801	0.0111098	1.57068	0.283547	0.775448	0.478544	0.25236	0.561774	0.513877	0.840282	0.317046	0.15145	2.09923	0.422447	0.600788	0.700839	0.369416
0.0633644	5.25499	0.0126072	1.64067	0.284301	0.842409	0.47879	0.275403	0.562273	0.557752	0.84059	0.343616	0.153475	2.24376	0.423031	0.652795	0.701197	0.39998
0.068259	5.25174	0.014167	1.70469	0.285117	0.908581	0.479057	0.298782	0.562813	0.601411	0.840922	0.370169	0.155631	2.38069	0.423664	0.704512	0.701584	0.430492
0.0731505	5.24816	0.0157837	1.76308	0.285994	0.973982	0.479347	0.322542	0.563394	0.644856	0.841279	0.396615	0.157911	2.5102	0.424344	0.755946	0.701999	0.460902
0.0780384	5.24429	0.0174523	1.81622	0.286932	1.0385	0.479658	0.346698	0.564015	0.688021	0.841661	0.423067	0.160308	2.63268	0.425072	0.807103	0.702443	0.491252
0.0829226	5.24013	0.0191681	1.8644	0.287929	1.10206	0.479993	0.371207	0.564676	0.730917	0.842068	0.449456	0.162488	2.73397	0.425848	0.857929	0.702915	0.521557
0.0878028	5.23564	0.0209264	1.90805	0.288985	1.16472	0.48035	0.396127	0.565377	0.773571	0.842499	0.475794	0.164409	2.81623	0.426671	0.908458	0.703415	0.551772
0.0926786	5.23083	0.0227235	1.94751	0.290099	1.2264	0.480731	0.421506	0.566117	0.815885	0.842954	0.502104	0.16604	2.88161	0.427541	0.958613	0.703943	0.581879
0.0975499	5.22568	0.0245554	1.98306	0.29127	1.28698	0.481135	0.44736	0.566897	0.857886	0.843434	0.528355	0.167356	2.93169	0.428457	1.00839	0.704499	0.611917
0.102416	5.2202	0.0264187	2.01507	0.292497	1.34656	0.481564	0.473654	0.567716	0.899627	0.843939	0.554564	0.168337	2.96752	0.42942	1.05776	0.705083	0.641892
0.107277	5.21438	0.0283103	2.04385	0.29378	1.40507	0.482018	0.500461	0.568573	0.941069	0.844468	0.580687	0.168972	2.99	0.430428	1.10677	0.705695	0.671738
0.112133	5.20815	0.0302272	2.0697	0.295116	1.46239	0.482497	0.527781	0.569469	0.982131	0.845021	0.606786	0.169892	3.02168	0.431482	1.15537	0.706335	0.701473
0.116982	5.20148	0.0321669	2.09283	0.296505	1.51865	0.483001	0.555614	0.570404	1.02287	0.845598	0.632765	0.170903	3.0555	0.432581	1.20356	0.707002	0.731135
0.121825	5.19443	0.034127	2.11353	0.297945	1.57376	0.483532	0.584033	0.571375	1.06327	0.8462	0.65872	0.172296	3.10043	0.433725	1.2513	0.707697	0.760723
0.126661	5.18701	0.0361053	2.132	0.299437	1.62766	0.48409	0.612967	0.572385	1.10334	0.846826	0.68463	0.174086	3.15526	0.434913	1.29859	0.70842	0.790163
0.13149	5.17906	0.0380997	2.14845	0.300978	1.68045	0.484674	0.642489	0.573431	1.14305	0.847476	0.710449	0.176293	3.21889	0.436145	1.34541	0.70917	0.819452
0.136312	5.17062	0.0401086	2.16317	0.302568	1.73206	0.485287	0.672603	0.574515	1.1824	0.84815	0.736232	0.178936	3.29009	0.43742	1.39175	0.709947	0.848659
0.141125	5.16173	0.0421305	2.17621	0.304206	1.78246	0.485928	0.703313	0.575635	1.22141	0.848848	0.76187	0.182038	3.36749	0.438738	1.43763	0.710751	0.877777
0.14593	5.15229	0.0441638	2.18779	0.30589	1.8317	0.486597	0.734633	0.576791	1.26002	0.849569	0.787439	0.185211	3.44058	0.440099	1.48301	0.711582	0.906717
0.150726	5.14227	0.0459439	2.1969	0.307619	1.87986	0.487297	0.766583	0.577983	1.29828	0.850315	0.813014	0.188449	3.50943	0.441501	1.52794	0.712441	0.93552
0.155512	5.13169	0.047467	2.20386	0.309162	1.92088	0.488026	0.799208	0.57921	1.33621	0.851084	0.838457	0.19175	3.57435	0.442946	1.5723	0.713326	0.964267
0.160288	5.12048	0.0487299	2.20913	0.310504	1.95512	0.488786	0.832452	0.580472	1.37376	0.851877	0.863782	0.19511	3.63564	0.444431	1.61613	0.714237	0.992831
0.165054	5.10861	0.0497305	2.2131	0.311631	1.98303	0.489577	0.866348	0.58177	1.41091	0.852694	0.88909	0.198525	3.69345	0.445957	1.65948	0.715176	1.02125
0.169808	5.09607	0.0504674	2.21573	0.312533	2.00478	0.4904	0.900887	0.583102	1.44772	0.853534	0.914291	0.201992	3.74811	0.447523	1.70231	0.71614	1.04952
0.17455	5.08279	0.0509394	2.21738	0.313203	2.02052	0.491256	0.936128	0.584467	1.48413	0.854397	0.939352	0.205509	3.79971	0.449129	1.74461	0.717131	1.07764
0.179279	5.06876	0.0516186	2.21979	0.313634	2.03059	0.492145	0.972039	0.585867	1.52019	0.855284	0.96435	0.209073	3.84844	0.450774	1.78636	0.718148	1.10569
0.183995	5.05387	0.0523576	2.22219	0.314258	2.04498	0.493067	1.00863	0.5873	1.55589	0.856194	0.989298	0.21268	3.89452	0.452458	1.82752	0.719192	1.13351
0.188696	5.03809	0.053364	2.22527	0.314941	2.06042	0.494024	1.04593	0.588766	1.5912	0.857128	1.01415	0.21633	3.9381	0.45418	1.86818	0.720261	1.16117
0.193383	5.0214	0.0546387	2.22889	0.315878	2.08124	0.495016	1.0839	0.590265	1.62614	0.858084	1.03886	0.220018	3.97934	0.455939	1.90833	0.721355	1.18874
0.198053	5.00377	0.0561828	2.23289	0.317077	2.10713	0.496044	1.12257	0.591796	1.66072	0.859064	1.06347	0.223745	4.01838	0.457736	1.9479	0.722476	1.21611
0.202707	4.98513	0.0579975	2.23713	0.318546	2.13799	0.497108	1.16189	0.59336	1.69495	0.860066	1.08801	0.227506	4.0553	0.459569	1.9869	0.723621	1.24332
0.207342	4.96535	0.0600839	2.24142	0.320296	2.17353	0.498209	1.20193	0.594955	1.72882	0.861091	1.11247	0.231301	4.09027	0.461438	2.02537	0.724792	1.27035
0.211959	4.94439	0.0621741	2.2451	0.32234	2.21346	0.499347	1.24267	0.596581	1.7623	0.862139	1.13677	0.235128	4.12339	0.463343	2.06326	0.725989	1.29723
0.216556	4.92226	0.0642674	2.2483	0.324421	2.25246	0.500524	1.28403	0.598239	1.79543	0.863209	1.161	0.238985	4.15471	0.465283	2.10059	0.72721	1.32396
0.221131	4.8988	0.0663636	2.25103	0.326537	2.2906	0.50174	1.3261	0.599927	1.8282	0.864302	1.18514	0.24287	4.18444	0.467257	2.13746	0.728456	1.35048
0.225684	4.87392	0.068462	2.25339	0.328689	2.32802	0.502995	1.36886	0.601645	1.86065	0.865418	1.2091	0.246782	4.21255	0.469006	2.16907	0.729726	1.37685
0.230213	4.84767	0.0705625	2.25537	0.330875	2.36475	0.504291	1.41218	0.603394	1.89272	0.866555	1.23299	0.250719	4.23914	0.470516	2.19568	0.731021	1.40307
0.234717	4.81985	0.0726646	2.25699	0.333096	2.4008	0.505627	1.4562	0.605172	1.92443	0.867715	1.25682	0.254681	4.26437	0.471779	2.21757	0.732341	1.42908
0.239194	4.79036	0.0747682	2.25838	0.335349	2.43626	0.506825	1.49504	0.60698	1.95583	0.868897	1.28047	0.258666	4.28823	0.472786	2.23458	0.733684	1.45488
0.243643	4.75921	0.0768729	2.25952	0.337635	2.47127	0.507871	1.52847	0.608817	1.98684	0.870101	1.30403	0.262672	4.31078	0.473532	2.24709	0.735052	1.48055
0.248063	4.72628	0.0789785	2.26038	0.339954	2.50592	0.508754	1.55636	0.610682	2.01752	0.871327	1.3275	0.266698	4.33216	0.474011	2.25512	0.736443	1.50604
0.25245	4.69148	0.0810848	2.26106	0.342305	2.54023	0.509463	1.57868	0.612576	2.0479	0.872575	1.35078	0.270744	4.35237	0.474703	2.26648	0.737858	1.53131
0.256805	4.65469	0.0831918	2.26159	0.344687	2.57438	0.509991	1.59509	0.614498	2.07791	0.873844	1.37398	0.274808	4.37145	0.47546	2.27872	0.739296	1.55644
0.261124	4.61582	0.0852991	2.26196	0.347102	2.60845	0.510332	1.60561	0.616448	2.10759	0.875135	1.39709	0.27889	4.38945	0.476495	2.29531	0.740758	1.58134
0.265406	4.57486	0.0874067	2.26219	0.349548	2.64251	0.510826	1.62087	0.618425	2.137	0.876447	1.42008	0.282988	4.40643	0.477814	2.31615	0.742243	1.60603
0.269648	4.53175	0.0895144	2.2623	0.352026	2.67675	0.511368	1.63744	0.62043	2.166	0.877781	1.44292	0.287101	4.42246	0.479426	2.34106	0.743751	1.63059
0.27385	4.48634	0.0916222	2.26228	0.354536	2.71127	0.512114	1.66015	0.622461	2.19471	0.879136	1.46561	0.291228	4.43759	0.481339	2.36991	0.745281	1.65495
0.278008	4.43857	0.0937299	2.26216	0.357078	2.74614	0.513073	1.68914	0.62452	2.22313	0.880512	1.48821	0.29537	4.45178	0.483562	2.4025	0.746835	1.67912
0.282121	4.38851	0.0958375	2.26203	0.359653	2.78152	0.514254	1.72434	0.626604	2.25119	0.881909	1.5107	0.299524	4.4651	0.485815	2.43459	0.74841	1.70308
0.286186	4.33608	0.0979449	2.26178	0.362261	2.81756	0.515671	1.76597	0.628442	2.27543	0.883327	1.53305	0.30369	4.47762	0.488098	2.46615	0.750008	1.72683
0.290201	4.28124	0.100052	2.26147	0.364903	2.85433	0.517338	1.81414	0.630024	2.29593	0.884766	1.55526	0.307867	4.48933	0.490411	2.49725	0.751628	1.75045
0.294163	4.22401	0.102159	2.26117	0.36758	2.89198	0.519051	1.86276	0.631343	2.31278	0.886225	1.57735	0.312055	4.50024	0.492752	2.52777	0.75327	1.77382
0.298072	4.16447	0.104266	2.26077	0.370292	2.93065	0.520809	1.91172	0.632392	2.32588	0.887705	1.59932	0.316253	4.51042	0.495121	2.55779	0.754933	1.79697
0.301923	4.10267	0.106372	2.26031	0.373041	2.97038	0.522613	1.96107	0.633168	2.33564	0.889205	1.62116	0.32046	4.51991	0.497518	2.58734	0.756618	1.81999
0.305717	4.03869	0.108477	2.25986	0.375827	3.01127	0.524464	2.01075	0.633666	2.34184	0.890726	1.64285	0.324675	4.52868	0.499942	2.61636	0.758325	1.84279
0.309449	3.9727	0.110583	2.25937	0.378652	3.05347	0.52636	2.06064	0.634384	2.35058	0.892267	1.66442	0.328899	4.53673	0.502393	2.64493	0.760052	1.86541
0.313119	3.9048	0.112687	2.25888	0.381517	3.09702	0.528303	2.11075	0.635168	2.36017	0.893827	1.68588	0.333129	4.54416	0.504871	2.67302	0.761801	1.8878
0.316725	3.83513	0.114792	2.25837	0.384423	3.1419	0.530293	2.16103	0.636239	2.37306	0.895408	1.70718	0.337366	4.55095	0.507374	2.70058	0.76357	1.91001
0.320266	3.764	0.116896	2.25783	0.387371	3.18818	0.53233	2.21148	0.637602	2.38931	0.897009	1.72832	0.341609	4.55705	0.509903	2.72773	0.76536	1.93203
0.323296	3.70103	0.118999	2.2573	0.390364	3.23589	0.534414	2.26201	0.639262	2.40886	0.898629	1.74937	0.345858	4.56263	0.512457	2.75445	0.76717	1.95387
0.325839	3.64665	0.121102	2.25674	0.393401	3.28494	0.536545	2.31258	0.641227	2.43154	0.900268	1.7703	0.350111	4.56758	0.515036	2.78066	0.768764	1.97273
0.327913	3.60128	0.123204	2.25617	0.396485	3.33529	0.538723	2.36313	0.643505	2.45734	0.901927	1.79107	0.354369	4.57189	0.517638	2.80644	0.770135	1.98867
0.329535	3.56521	0.125306	2.25566	0.399616	3.38686	0.540949	2.4136	0.645806	2.48284	0.903606	1.81166	0.358631	4.57569	0.520265	2.83182	0.771277	2.00183
0.330717	3.53875	0.127407	2.25508	0.402796	3.43953	0.543221	2.464	0.648131	2.50804	0.905303	1.83218	0.362895	4.57891	0.522915	2.85678	0.772185	2.01217
0.331468	3.52172	0.129508	2.25453	0.406025	3.49318	0.54554	2.5142	0.650479	2.53298	0.90702	1.85258	0.367163	4.58158	0.525588	2.8813	0.772856	2.01966
0.332543	3.49707	0.131608	2.254	0.409305	3.54762	0.547906	2.56421	0.652851	2.55769	0.908755	1.87278	0.371433	4.58372	0.528284	2.90543	0.773287	2.02443
0.333702	3.47039	0.133708	2.25345	0.412636	3.6026	0.550318	2.61401	0.655245	2.58209	0.91051	1.89284	0.375704	4.58527	0.531002	2.92914	0.773907	2.0314
0.335264	3.43403	0.135808	2.25291	0.416018	3.658	0.552777	2.66352	0.657662	2.60622	0.912282	1.9128	0.379977	4.58633	0.533742	2.95249	0.774585	2.03893
0.337216	3.38799	0.137906	2.25239	0.419452	3.71356	0.555281	2.71266	0.660102	2.63016	0.914074	1.93266	0.38425	4.58687	0.536504	2.97549	0.77551	2.04905
0.339542	3.33247	0.140005	2.25187	0.422938	3.76899	0.557831	2.7614	0.662563	2.65377	0.915884	1.95231	0.388524	4.58688	0.539287	2.99808	0.776686	2.06188
0.342221	3.26761	0.142102	2.25135	0.426475	3.82414	0.560427	2.80976	0.665047	2.67711	0.917712	1.97183	0.392797	4.58641	0.542091	3.02033	0.778118	2.07722
0.345231	3.19373	0.1442	2.25084	0.430064	3.87874	0.563067	2.85767	0.667552	2.70028	0.919558	1.99124	0.39707	4.58537	0.544915	3.04225	0.779812	2.09505
0.348173	3.12071	0.146297	2.25033	0.433703	3.93255	0.565752	2.9051	0.670079	2.72318	0.921182	2.00806	0.401342	4.58386	0.547759	3.06384	0.781774	2.11539
0.351046	3.04879	0.148393	2.24985	0.437392	3.98535	0.56848	2.95195	0.672626	2.7458	0.922576	2.02234	0.405612	4.58186	0.550624	3.08506	0.783754	2.13552
0.353854	2.97819	0.150489	2.24939	0.441129	4.03691	0.571252	2.99824	0.675195	2.76825	0.923737	2.03402	0.409879	4.57932	0.553508	3.10604	0.785753	2.15547
0.356596	2.90916	0.152584	2.24891	0.444914	4.08707	0.574067	3.04393	0.677785	2.79042	0.92466	2.04324	0.414145	4.57629	0.556412	3.12671	0.78777	2.17526
0.359274	2.84179	0.15468	2.24844	0.448745	4.13574	0.576924	3.08901	0.680395	2.81234	0.925341	2.0499	0.418407	4.57276	0.559334	3.14704	0.789806	2.19483
0.361891	2.77625	0.156774	2.24799	0.45262	4.18271	0.579823	3.13349	0.683025	2.83411	0.925778	2.0542	0.422666	4.56877	0.562276	3.1671	0.79186	2.21424
0.364448	2.71275	0.158868	2.24755	0.456539	4.22787	0.582763	3.1773	0.685676	2.85565	0.926408	2.06052	0.42692	4.56424	0.565236	3.18694	0.793932	2.23347
0.366946	2.65127	0.160962	2.24714	0.460499	4.27114	0.585744	3.22037	0.688346	2.87697	0.927094	2.06725	0.431171	4.55923	0.568214	3.20653	0.796022	2.25249
0.369388	2.59193	0.163056	2.24672	0.464498	4.31248	0.588764	3.26274	0.691037	2.89802	0.928032	2.07633	0.435416	4.55372	0.571211	3.22584	0.79813	2.27135
0.371776	2.53479	0.165149	2.24629	0.468534	4.35186	0.591824	3.3044	0.693746	2.91892	0.929223	2.0878	0.439656	4.54767	0.574225	3.24495	0.800255	2.29004
0.374111	2.47985	0.167241	2.24589	0.472607	4.38917	0.594922	3.34533	0.696476	2.93962	0.930673	2.10159	0.44389	4.54117	0.577258	3.2638	0.802397	2.30854
0.376397	2.42712	0.169334	2.24551	0.476713	4.42452	0.598057	3.38554	0.699224	2.96011	0.932386	2.1177	0.448118	4.53418	0.580307	3.2825	0.804556	2.32683
0.378634	2.37658	0.171426	2.24513	0.480852	4.45787	0.60123	3.42494	0.701992	2.98043	0.934368	2.13602	0.452339	4.52662	0.583374	3.301	0.806733	2.34503
0.380825	2.32824	0.173517	2.24476	0.48502	4.4892	0.604439	3.46361	0.704778	3.00051	0.936366	2.15419	0.456553	4.51856	0.586458	3.31926	0.808926	2.36302
0.382972	2.28206	0.175609	2.24439	0.489217	4.51859	0.607684	3.50151	0.707583	3.02044	0.938382	2.17229	0.460759	4.51002	0.589559	3.3374	0.811136	2.38081
0.385078	2.23795	0.177699	2.24403	0.49344	4.5461	0.610964	3.53866	0.710406	3.04022	0.940414	2.19024	0.464957	4.50096	0.592677	3.35537	0.813362	2.39845
0.387143	2.1959	0.17979	2.2437	0.497688	4.5718	0.614278	3.57504	0.713248	3.05982	0.942463	2.208	0.469146	4.49137	0.595812	3.37318	0.815605	2.41596
0.389169	2.15587	0.18188	2.24335	0.501959	4.59571	0.617626	3.61058	0.716108	3.07924	0.944529	2.22563	0.473326	4.48127	0.598963	3.39087	0.817864	2.43331
0.39116	2.11772	0.18397	2.24303	0.506251	4.61788	0.621006	3.64542	0.718986	3.09852	0.94661	2.24316	0.477496	4.47065	0.60213	3.40843	0.820139	2.45049
0.393116	2.08148	0.18606	2.24272	0.510564	4.63838	0.624419	3.6795	0.721881	3.11764	0.948708	2.26057	0.481656	4.45948	0.605314	3.42589	0.82243	2.46746
0.395038	2.04698	0.188149	2.24238	0.514895	4.6573	0.627862	3.71277	0.724795	3.13657	0.950823	2.27781	0.485806	4.44778	0.608514	3.44323	0.824737	2.48433
0.39693	2.01425	0.190238	2.24211	0.519242	4.67471	0.631337	3.74533	0.727726	3.15538	0.952953	2.29489	0.489944	4.4356	0.61173	3.4605	0.82706	2.50108
0.398792	1.98319	0.192327	2.24182	0.523605	4.69067	0.634841	3.77714	0.730675	3.17405	0.955099	2.31189	0.494071	4.42284	0.614962	3.47771	0.829398	2.51762
0.400625	1.95371	0.194416	2.24153	0.527983	4.7052	0.638375	3.80817	0.733641	3.19257	0.957261	2.32874	0.498186	4.4095	0.61821	3.49481	0.831751	2.53403
0.402432	1.92575	0.196504	2.24124	0.532373	4.7184	0.641937	3.83848	0.736624	3.21096	0.959438	2.34544	0.502288	4.39569	0.621474	3.51182	0.83412	2.55032
0.404214	1.89925	0.198592	2.24095	0.536775	4.73039	0.645528	3.8681	0.739624	3.22923	0.961631	2.36199	0.506377	4.38132	0.624754	3.52882	0.836503	2.56645
0.405971	1.87413	0.20068	2.24069	0.541188	4.74114	0.649145	3.89697	0.742641	3.24741	0.96384	2.37843	0.510452	4.3664	0.62805	3.54581	0.838902	2.58246
0.407706	1.85037	0.202767	2.24042	0.54561	4.75069	0.652789	3.92514	0.745675	3.26547	0.966063	2.39475	0.514513	4.35096	0.631361	3.56274	0.841315	2.59838
0.409419	1.82786	0.204855	2.24017	0.55004	4.7592	0.656459	3.95266	0.748726	3.2834	0.968302	2.41093	0.518559	4.33493	0.634689	3.57962	0.843744	2.6141
0.411112	1.80651	0.206942	2.23994	0.554478	4.76664	0.660155	3.97942	0.751793	3.30123	0.970556	2.42696	0.522591	4.31834	0.638032	3.59648	0.846186	2.62969
0.412786	1.78638	0.209028	2.23971	0.558922	4.77307	0.663875	4.00555	0.754877	3.31897	0.972824	2.44285	0.526606	4.30126	0.64139	3.61338	0.848644	2.64521
0.414441	1.76734	0.211115	2.23949	0.563372	4.77859	0.667619	4.03103	0.757978	3.33663	0.975108	2.45867	0.530606	4.28367	0.644765	3.63024	0.851116	2.66059
0.416079	1.74933	0.213202	2.23923	0.567826	4.78319	0.671386	4.05581	0.761095	3.35421	0.977406	2.47431	0.534588	4.26547	0.648155	3.64706	0.853601	2.67582
0.417701	1.73234	0.215288	2.23899	0.572285	4.78691	0.675176	4.07996	0.764228	3.37164	0.979718	2.48982	0.538554	4.24674	0.651561	3.66393	0.856102	2.69094
0.419307	1.71626	0.217374	2.2388	0.576746	4.78976	0.678988	4.1035	0.767378	3.38908	0.982045	2.50526	0.542502	4.22752	0.654982	3.68079	0.858616	2.70597
0.420899	1.70112	0.219459	2.23859	0.58121	4.79188	0.682823	4.12644	0.770543	3.40647	0.984387	2.52053	0.546431	4.20776	0.658419	3.69764	0.861144	2.72092
0.422477	1.68681	0.221545	2.23838	0.585675	4.79327	0.686678	4.14875	0.773725	3.42374	0.986742	2.53563	0.550342	4.18745	0.661872	3.71453	0.863686	2.73576
0.424042	1.67336	0.22363	2.2382	0.590142	4.7939	0.690553	4.17041	0.776923	3.44098	0.989111	2.55065	0.554234	4.16664	0.665341	3.73143	0.866242	2.75047
0.425595	1.6607	0.225716	2.23796	0.594608	4.7938	0.694449	4.19153	0.780137	3.45817	0.991495	2.56556	0.558106	4.14535	0.668825	3.74831	0.868811	2.76507
0.427136	1.64876	0.227801	2.23777	0.599075	4.79306	0.698364	4.21209	0.783367	3.47533	0.993892	2.58031	0.561959	4.12354	0.672326	3.7652	0.871394	2.77962
0.428667	1.63752	0.229885	2.2376	0.60354	4.7917	0.702298	4.23204	0.786613	3.49245	0.996303	2.59496	0.56579	4.10125	0.675842	3.78211	0.873991	2.79404
0.430188	1.62696	0.23197	2.23744	0.608003	4.7897	0.70625	4.25143	0.789875	3.50954	0.998728	2.60947	0.569601	4.07846	0.679373	3.79895	0.8766	2.80835
0.431699	1.61706	0.234055	2.23726	0.612465	4.78717	0.71022	4.27027	0.793153	3.52661	1.00117	2.61665	0.57339	4.05519	0.68292	3.81583	0.879224	2.82265
0.433201	1.6078	0.236139	2.23705	0.616924	4.78403	0.714207	4.2886	0.796446	3.54369			0.577157	4.03152	0.686484	3.83273	0.88186	2.83683
0.434695	1.5991	0.238223	2.23691	0.621379	4.7803	0.718211	4.30636	0.799756	3.56075			0.580902	4.00741	0.690062	3.8496	0.88451	2.85092
