Sym0		Asym0		Sym1		Sym2		Sym3		Asym2		Asym3		Asym4	
464  Points		493  Points		174  Points		128  Points		113  Points		346  Points		140  Points		112  Points	
Freq (MHz)	Vgr (m/ms)	Freq (MHz)	Vgr (m/ms)	Freq (MHz)	Vgr (m/ms)	Freq (MHz)	Vgr (m/ms)	Freq (MHz)	Vgr (m/ms)	Freq (MHz)	Vgr (m/ms)	Freq (MHz)	Vgr (m/ms)	Freq (MHz)	Vgr (m/ms)
0.00738265	8.18543	4.20886e-005	0.250862	0.279512	0.124018	0.458666	0.0611136	0.559052	0.139202	0.139862	0.557174	0.419286	0.144013	0.698774	0.0575935
0.015009	8.18355	0.000275815	0.358729	0.279628	0.211086	0.458723	0.096809	0.559182	0.190364	0.140381	0.784366	0.419421	0.207488	0.698828	0.0946049
0.0226318	8.17879	0.00071054	0.570342	0.279905	0.384911	0.458846	0.168373	0.559407	0.292583	0.141324	1.23325	0.419673	0.33434	0.69895	0.168652
0.0302493	8.17206	0.00133858	0.77223	0.280345	0.557805	0.459036	0.240382	0.559727	0.394554	0.142679	1.66887	0.420044	0.460895	0.699142	0.242625
0.0378595	8.16336	0.00214951	0.961627	0.280945	0.729203	0.459294	0.313063	0.560142	0.49625	0.144434	2.08746	0.420532	0.587003	0.699402	0.316522
0.0454608	8.15255	0.00313047	1.13659	0.281704	0.898781	0.45962	0.386574	0.560652	0.597616	0.146569	2.48606	0.421137	0.712436	0.699732	0.39027
0.0530509	8.13964	0.00426741	1.29593	0.28262	1.06611	0.460014	0.461086	0.561256	0.69854	0.149066	2.86257	0.421859	0.837108	0.700129	0.463864
0.0606281	8.1246	0.0055453	1.43914	0.28369	1.23078	0.460479	0.536795	0.561953	0.79895	0.151903	3.21583	0.422697	0.960987	0.700596	0.537297
0.0681902	8.10725	0.00694909	1.56631	0.284913	1.39253	0.461015	0.613945	0.562745	0.898767	0.155058	3.54531	0.42365	1.08387	0.701131	0.610481
0.0757351	8.08758	0.00846396	1.67807	0.286285	1.55095	0.461623	0.69266	0.563628	0.997986	0.15851	3.85116	0.424717	1.20563	0.701734	0.683461
0.0832605	8.06543	0.010076	1.77538	0.287803	1.70578	0.462305	0.773111	0.564604	1.09652	0.162235	4.13394	0.425897	1.32617	0.702404	0.756178
0.0907641	8.04071	0.0117722	1.85933	0.289464	1.85679	0.463064	0.855498	0.565671	1.19428	0.166213	4.39457	0.427188	1.44546	0.703143	0.828591
0.0982435	8.01323	0.0135406	1.9312	0.291263	2.00376	0.463899	0.939926	0.56683	1.29128	0.170423	4.63423	0.42859	1.56334	0.703948	0.900687
0.105696	7.98288	0.0153708	1.99234	0.293197	2.1466	0.464815	1.02668	0.568078	1.38744	0.174848	4.85413	0.430101	1.67964	0.704821	0.972441
0.113119	7.9495	0.0172531	2.04402	0.295263	2.28514	0.465813	1.1158	0.569415	1.48263	0.179469	5.05559	0.43172	1.7944	0.70576	1.04381
0.120509	7.91284	0.0191796	2.08745	0.297455	2.41925	0.466894	1.20748	0.57084	1.57692	0.184269	5.23996	0.433445	1.90752	0.706766	1.11476
0.127863	7.87269	0.0211429	2.12371	0.299771	2.54903	0.468063	1.30185	0.572353	1.67028	0.189233	5.40854	0.435274	2.01885	0.707837	1.18533
0.135179	7.82888	0.0231369	2.15383	0.302205	2.6745	0.46932	1.39897	0.573953	1.76259	0.194347	5.5625	0.437207	2.12836	0.708975	1.2555
0.142452	7.7811	0.0251563	2.17882	0.304755	2.79573	0.470669	1.49901	0.575638	1.85384	0.199598	5.70307	0.43924	2.23604	0.710177	1.32516
0.149678	7.72905	0.0269333	2.19702	0.307415	2.91286	0.472113	1.60205	0.577407	1.94404	0.204974	5.83136	0.441373	2.34176	0.711444	1.3943
0.156854	7.67248	0.0284588	2.21015	0.310182	3.02613	0.473655	1.70815	0.57926	2.03319	0.210464	5.94826	0.443604	2.44547	0.712775	1.46295
0.163975	7.61098	0.0297266	2.21952	0.313054	3.13584	0.475296	1.81738	0.581196	2.12118	0.216058	6.0547	0.44593	2.54719	0.71417	1.53109
0.171036	7.54431	0.0307326	2.22611	0.316026	3.24226	0.477041	1.9297	0.583213	2.20802	0.221746	6.15156	0.44835	2.64684	0.715628	1.59868
0.178033	7.47204	0.0314741	2.23058	0.319095	3.34582	0.478892	2.04514	0.58531	2.29375	0.227521	6.23958	0.450862	2.74443	0.717149	1.66568
0.184959	7.39378	0.0319494	2.23321	0.32226	3.44696	0.480852	2.16375	0.587487	2.37833	0.233373	6.31947	0.453464	2.8399	0.718732	1.73213
0.19181	7.3092	0.0326336	2.2368	0.325518	3.54619	0.482924	2.28538	0.589742	2.46172	0.239296	6.39193	0.456154	2.93323	0.720377	1.79796
0.198579	7.21781	0.0333785	2.2404	0.328868	3.64402	0.485111	2.40991	0.592074	2.54392	0.24451	6.44949	0.45893	3.02445	0.722082	1.86317
0.20526	7.11925	0.0343934	2.24474	0.332309	3.74108	0.487415	2.53733	0.594482	2.62496	0.24899	6.49461	0.46179	3.11349	0.723848	1.92776
0.211845	7.01319	0.0356797	2.24964	0.335839	3.83802	0.489839	2.66744	0.596965	2.70486	0.252718	6.52929	0.464732	3.20041	0.725674	1.99168
0.218328	6.89936	0.0372386	2.25461	0.33946	3.93536	0.492385	2.79999	0.599523	2.78359	0.255678	6.5551	0.467754	3.28524	0.72756	2.05499
0.224701	6.77738	0.0390713	2.25944	0.343172	4.0338	0.495056	2.93486	0.602152	2.86115	0.257863	6.57317	0.470853	3.36796	0.729504	2.11759
0.230957	6.64709	0.0411787	2.26377	0.346977	4.13393	0.497854	3.07175	0.604854	2.93752	0.259264	6.58441	0.474029	3.44853	0.731506	2.17952
0.237088	6.50846	0.0432895	2.26699	0.350875	4.23627	0.50078	3.21033	0.607626	3.01277	0.261282	6.59996	0.477279	3.52704	0.733565	2.24075
0.243085	6.36142	0.045403	2.2693	0.354871	4.34125	0.503836	3.35036	0.610468	3.08687	0.263481	6.61617	0.480602	3.60358	0.735681	2.30132
0.248941	6.20629	0.0475181	2.27086	0.358965	4.44927	0.507023	3.4915	0.613378	3.15986	0.26648	6.63715	0.483994	3.67806	0.737853	2.36116
0.25465	6.0434	0.0496344	2.27186	0.363161	4.56057	0.510342	3.63337	0.616356	3.2318	0.270285	6.66186	0.487455	3.75055	0.740081	2.42026
0.260203	5.87325	0.0517515	2.27236	0.367463	4.67506	0.513793	3.77566	0.6194	3.30266	0.274906	6.68942	0.490983	3.82113	0.742363	2.47871
0.265594	5.69665	0.0538687	2.27246	0.371873	4.79265	0.517378	3.91795	0.62251	3.37244	0.28035	6.71842	0.494576	3.88985	0.7447	2.53642
0.270818	5.51453	0.055986	2.27226	0.376394	4.91306	0.521094	4.05986	0.625684	3.44118	0.286624	6.74769	0.498231	3.95675	0.747089	2.5934
0.27587	5.32807	0.0581028	2.27179	0.381028	5.03566	0.524943	4.20106	0.628922	3.50894	0.292924	6.77283	0.501948	4.02186	0.749532	2.64964
0.280746	5.13846	0.0602192	2.27115	0.385777	5.15979	0.528922	4.34116	0.632223	3.57576	0.299244	6.79398	0.505726	4.08528	0.752027	2.70514
0.285445	4.94704	0.0623349	2.27035	0.39001	5.26862	0.533032	4.47978	0.635585	3.64165	0.305583	6.8114	0.509561	4.14708	0.754573	2.75996
0.289964	4.75528	0.0644497	2.26944	0.393689	5.36136	0.53727	4.61662	0.639009	3.70663	0.311937	6.82512	0.513453	4.20724	0.75717	2.81408
0.294305	4.56462	0.0665637	2.26848	0.396779	5.43767	0.541634	4.75135	0.642492	3.77082	0.318301	6.83536	0.517401	4.26591	0.759817	2.8674
0.29847	4.37636	0.0686768	2.26744	0.399254	5.49775	0.546123	4.88364	0.646035	3.83415	0.324674	6.84227	0.521402	4.32317	0.762513	2.92005
0.30246	4.19181	0.0707889	2.26634	0.40109	5.54147	0.550735	5.01322	0.649637	3.89673	0.331051	6.84594	0.525456	4.37911	0.765258	2.97203
0.306281	4.01204	0.0728999	2.26528	0.402274	5.56932	0.555465	5.13989	0.653296	3.95868	0.33743	6.8465	0.529562	4.43372	0.768051	3.02326
0.309936	3.83802	0.07501	2.26423	0.403985	5.60918	0.560312	5.26329	0.657013	4.01996	0.343809	6.84395	0.533718	4.48711	0.770891	3.07379
0.313433	3.6706	0.077119	2.26312	0.405858	5.65194	0.565273	5.38332	0.660787	4.08064	0.350183	6.83844	0.537923	4.53942	0.773778	3.12366
0.316776	3.51029	0.079227	2.26202	0.408429	5.70949	0.570343	5.49981	0.664617	4.14082	0.356551	6.83	0.542177	4.5907	0.776712	3.17285
0.319974	3.35747	0.0813341	2.26099	0.411717	5.78095	0.575521	5.61253	0.668503	4.20063	0.36291	6.81868	0.546478	4.64105	0.779691	3.22136
0.323032	3.21252	0.0834402	2.26	0.415748	5.86507	0.580802	5.72138	0.672445	4.26004	0.369257	6.80452	0.550825	4.69048	0.782714	3.26916
0.32596	3.07548	0.0855453	2.259	0.420549	5.96015	0.586182	5.82621	0.676441	4.31917	0.37559	6.78755	0.555218	4.73916	0.785782	3.31635
0.328763	2.94626	0.0876495	2.25802	0.426152	6.06407	0.591658	5.92695	0.680493	4.37817	0.381905	6.76783	0.559656	4.78716	0.788894	3.36297
0.33145	2.8248	0.0897529	2.25709	0.431849	6.16194	0.597226	6.02347	0.684599	4.43707	0.388201	6.74537	0.564138	4.83453	0.792049	3.40891
0.334027	2.71093	0.0918554	2.25618	0.437634	6.25325	0.602882	6.11567	0.688761	4.49605	0.394474	6.72015	0.568665	4.88137	0.795246	3.45419
0.336501	2.60441	0.093957	2.25529	0.443501	6.33773	0.608622	6.20353	0.692977	4.55521	0.400723	6.69216	0.573234	4.92773	0.798485	3.4989
0.33888	2.5049	0.0960579	2.25448	0.449444	6.41519	0.614442	6.28697	0.697249	4.61463	0.406944	6.66146	0.577847	4.97373	0.801766	3.54307
0.341169	2.41199	0.098158	2.25371	0.455455	6.48571	0.620337	6.36582	0.701576	4.67451	0.413136	6.62806	0.582502	5.01943	0.805088	3.58664
0.343374	2.32543	0.100257	2.25292	0.461529	6.54936	0.626304	6.44008	0.705959	4.73502	0.419295	6.59195	0.586594	5.05899	0.808449	3.62963
0.345502	2.24488	0.102356	2.25216	0.467659	6.6063	0.632338	6.50972	0.710399	4.79627	0.425419	6.55313	0.590107	5.09261	0.811851	3.6721
0.347557	2.16991	0.104454	2.25145	0.473839	6.65678	0.638434	6.57452	0.714897	4.85843	0.431506	6.5116	0.593029	5.12033	0.815292	3.71406
0.349546	2.10025	0.106551	2.2508	0.480064	6.70103	0.644589	6.63446	0.719453	4.92181	0.437553	6.46737	0.595351	5.14213	0.818772	3.75548
0.351471	2.03556	0.108648	2.25018	0.486326	6.73945	0.650797	6.68952	0.724068	4.98652	0.443557	6.42045	0.597065	5.15822	0.82229	3.79643
0.353339	1.97547	0.110744	2.24954	0.492622	6.77232	0.657054	6.73944	0.728744	5.05275	0.449517	6.37092	0.598165	5.16848	0.825846	3.83688
0.355152	1.91967	0.11284	2.24893	0.498946	6.79992	0.663355	6.78413	0.733483	5.12082	0.455429	6.31873	0.599749	5.18324	0.829439	3.87683
0.356916	1.86791	0.114935	2.24837	0.505293	6.82269	0.669695	6.82355	0.738287	5.19097	0.461291	6.26388	0.601476	5.19927	0.83307	3.91631
0.358633	1.8199	0.11703	2.24783	0.511659	6.84086	0.67607	6.85766	0.743156	5.26337	0.467101	6.20654	0.603834	5.22096	0.836737	3.95536
0.360307	1.77537	0.119124	2.24734	0.51804	6.85477	0.681649	6.88288	0.748094	5.33831	0.472856	6.14667	0.60683	5.2485	0.84044	3.99404
0.361941	1.73414	0.121217	2.24684	0.524432	6.8647	0.686419	6.90096	0.753103	5.41604	0.478555	6.08433	0.610474	5.28169	0.84418	4.03221
0.363538	1.69593	0.12331	2.24637	0.530831	6.8709	0.690373	6.91342	0.758186	5.49678	0.484194	6.01964	0.614778	5.32055	0.847954	4.06996
0.365101	1.6605	0.125403	2.24592	0.537235	6.87371	0.693503	6.92184	0.763346	5.58079	0.489772	5.95266	0.619756	5.36502	0.851763	4.10738
0.366632	1.62775	0.127495	2.24547	0.54364	6.87325	0.695808	6.927	0.768586	5.66823	0.495286	5.8835	0.624775	5.40941	0.855608	4.14435
0.368134	1.59739	0.129587	2.24506	0.550043	6.86976	0.697283	6.92983	0.773908	5.75918	0.500735	5.81219	0.629836	5.45369	0.859486	4.18093
0.369609	1.56934	0.131679	2.24468	0.556441	6.86351	0.699405	6.93349	0.779317	5.8537	0.506116	5.73892	0.634938	5.49773	0.863398	4.21718
0.371059	1.54341	0.13377	2.2443	0.562832	6.85467	0.701713	6.93657	0.784816	5.95184	0.511429	5.66387	0.64008	5.54154	0.867344	4.25299
0.372485	1.51947	0.135861	2.24393	0.569214	6.8433	0.704853	6.93947	0.790408	6.05335	0.51667	5.58709	0.645264	5.58505	0.871323	4.28842
0.37389	1.49735	0.137951	2.2436	0.575584	6.82962	0.708825	6.94113	0.795359	6.14436	0.52184	5.50875	0.650488	5.62815	0.875335	4.32355
0.375275	1.47694	0.140041	2.24329	0.58194	6.81378	0.713629	6.93996	0.799639	6.22381	0.526935	5.42907	0.655751	5.6708	0.87938	4.35828
0.376642	1.45815	0.142131	2.24295	0.588281	6.79582	0.719263	6.93431	0.80322	6.29057	0.531956	5.34818	0.661054	5.71292	0.883456	4.39265
0.377992	1.44086	0.144221	2.24263	0.594603	6.77597	0.725719	6.92222	0.806079	6.34395	0.536901	5.26621	0.666397	5.75438	0.887565	4.42669
0.379327	1.42495	0.14631	2.24233	0.600907	6.75421	0.732161	6.90435	0.808196	6.38362	0.541769	5.1834	0.671777	5.79511	0.891705	4.46033
0.380647	1.41035	0.148399	2.24206	0.607189	6.7307	0.738584	6.88073	0.809558	6.40917	0.54656	5.09992	0.677195	5.83499	0.895876	4.49363
0.381955	1.39697	0.150488	2.24179	0.613449	6.7055	0.744983	6.85174	0.811526	6.44598	0.551272	5.01592	0.68265	5.8739	0.900078	4.52662
0.383251	1.38471	0.152577	2.2415	0.619684	6.67859	0.751352	6.8178	0.813677	6.48608	0.555906	4.93162	0.688141	5.91174	0.904311	4.55927
0.384371	1.37486	0.154665	2.24128	0.625894	6.65019	0.757687	6.77955	0.816625	6.54095	0.560462	4.84717	0.693666	5.94842	0.908574	4.59153
0.385319	1.36713	0.156753	2.24107	0.632076	6.62028	0.763985	6.73769	0.820389	6.61063	0.564938	4.76269	0.699225	5.9839	0.912867	4.62339
0.3861	1.36112	0.158841	2.24081	0.63823	6.58884	0.770242	6.69292	0.824993	6.69489	0.569336	4.67844	0.704816	6.01801	0.916632	4.65096
0.386715	1.35651	0.160929	2.24057	0.644354	6.55602	0.776456	6.6461	0.830469	6.79356	0.573656	4.59457	0.710439	6.05066	0.919859	4.67418
0.387166	1.35342	0.163016	2.24038	0.650446	6.52185	0.782626	6.59813	0.836851	6.90582	0.577898	4.51114	0.716091	6.08182	0.92254	4.69329
0.387454	1.35145	0.165103	2.24014	0.656506	6.48635	0.788751	6.54982	0.843337	7.01626	0.582062	4.42838	0.721771	6.11139	0.924667	4.70831
0.387867	1.34858	0.16719	2.23995	0.662533	6.44955	0.794831	6.50208	0.849925	7.12425	0.58615	4.34635	0.727479	6.13932	0.926235	4.7193
0.388315	1.34579	0.169277	2.23977	0.668524	6.41149	0.800867	6.45562	0.856612	7.22911	0.590161	4.26519	0.733211	6.16556	0.927241	4.72631
0.388924	1.34206	0.171364	2.23958	0.67448	6.3722	0.80686	6.41111	0.863396	7.33024	0.594097	4.18503	0.738968	6.19003	0.92869	4.73632
0.38969	1.33751	0.17345	2.23941	0.680398	6.33176	0.812814	6.36908	0.870271	7.42721	0.597959	4.10591	0.744746	6.21274	0.930267	4.74714
0.390614	1.33249	0.175537	2.23925	0.686278	6.29015	0.818729	6.32994	0.877235	7.51968	0.601748	4.02801	0.750544	6.23361	0.932419	4.76182
0.391694	1.32708	0.177623	2.23906	0.692119	6.24741	0.824609	6.294	0.884283	7.60755	0.605465	3.95134	0.756362	6.25265	0.93515	4.78029
0.392927	1.32151	0.179709	2.23889	0.69792	6.20359	0.830457	6.26142	0.891411	7.69063	0.609111	3.87594	0.762196	6.26987	0.938466	4.80239
0.394156	1.31656	0.181795	2.23877	0.703679	6.15876	0.836276	6.23238	0.898614	7.76887	0.612688	3.80191	0.768045	6.28518	0.942375	4.82818
0.395381	1.31218	0.183881	2.2386	0.709396	6.11291	0.84207	6.20677	0.905888	7.84245	0.616196	3.72927	0.773907	6.29869	0.946888	4.85736
0.396601	1.30842	0.185966	2.23844	0.71507	6.0661	0.847842	6.18451	0.913228	7.91139	0.619637	3.65812	0.779782	6.31032	0.951427	4.8862
0.397819	1.30518	0.188052	2.23833	0.720699	6.01838	0.853594	6.16558	0.92063	7.97582	0.623012	3.58845	0.785666	6.32008	0.955992	4.91476
0.399033	1.30243	0.190137	2.2382	0.726284	5.96973	0.859331	6.14971	0.92809	8.03605	0.626323	3.52022	0.791558	6.32808	0.960585	4.94291
0.400246	1.30013	0.192222	2.23802	0.731823	5.92028	0.865054	6.13672	0.935604	8.0922	0.629572	3.45354	0.797458	6.3342	0.965203	4.97072
0.401456	1.29829	0.194307	2.2379	0.737316	5.87007	0.870766	6.12642	0.943169	8.14444	0.632759	3.38842	0.803362	6.33855	0.969847	4.99822
0.402665	1.29686	0.196392	2.2378	0.742762	5.81907	0.876469	6.11859	0.95078	8.19312	0.635886	3.3248	0.809269	6.34116	0.974517	5.02536
0.403873	1.29581	0.198477	2.23768	0.748159	5.76739	0.882167	6.11296	0.958436	8.23834	0.638954	3.26271	0.815178	6.34206	0.979211	5.0522
0.40508	1.29514	0.200562	2.23758	0.753508	5.71511	0.88786	6.1093	0.966131	8.28025	0.641965	3.20215	0.821086	6.34119	0.983931	5.07872
0.406286	1.29481	0.202647	2.23746	0.758809	5.6622	0.893551	6.10747	0.973865	8.31914	0.644921	3.14312	0.826994	6.33867	0.988675	5.10488
0.407492	1.29482	0.204731	2.23732	0.764059	5.60872	0.899241	6.10718	0.981633	8.35518	0.647822	3.08562	0.832898	6.33456	0.993443	5.13073
0.408699	1.29509	0.206816	2.23722	0.76926	5.5548	0.904931	6.10824	0.989434	8.38847	0.650671	3.0296	0.838797	6.32876	0.998236	5.1563
0.409906	1.29566	0.2089	2.23713	0.77441	5.50045	0.910623	6.11046	0.997264	8.41914	0.653468	2.97507	0.844691	6.32143	1.00305	5.16897
0.411113	1.29649	0.210984	2.23701	0.779509	5.4457	0.916317	6.11365	1.00512	8.43383	0.656214	2.92202	0.850577	6.31257		
0.412321	1.29757	0.213069	2.23692	0.784558	5.39068	0.922015	6.11767			0.658912	2.87041	0.856454	6.30217		
0.413531	1.29892	0.215153	2.23687	0.789554	5.33537	0.927717	6.12235			0.661563	2.82022	0.86232	6.2903		
0.414742	1.30047	0.217237	2.23677	0.794499	5.27985	0.933423	6.12754			0.664168	2.77143	0.868175	6.27701		
0.415954	1.30227	0.219321	2.23665	0.799393	5.22415	0.939135	6.13311			0.666727	2.72404	0.874017	6.26234		
0.417168	1.30419	0.221405	2.23655	0.804234	5.16835	0.944852	6.13889			0.669244	2.67796	0.879844	6.24633		
0.418384	1.30629	0.223488	2.23647	0.809023	5.11255	0.950574	6.14479			0.671717	2.63321	0.885656	6.22895		
0.419603	1.30866	0.225572	2.23639	0.813761	5.05667	0.956302	6.15074			0.67415	2.58978	0.891451	6.2103		
0.420823	1.31112	0.227656	2.23631	0.818446	5.00086	0.962035	6.15657			0.676543	2.54763	0.897228	6.19039		
0.422046	1.31371	0.229739	2.23624	0.823079	4.9452	0.967774	6.16223			0.678897	2.5067	0.902986	6.16923		
0.423271	1.31647	0.231822	2.23616	0.827661	4.88961	0.973518	6.1677			0.681214	2.46701	0.908724	6.14693		
0.424499	1.31939	0.233906	2.23613	0.832191	4.8342	0.979267	6.17278			0.683494	2.42849	0.91444	6.12351		
0.425729	1.32242	0.235989	2.23603	0.836669	4.77903	0.98502	6.17744			0.685739	2.39111	0.920134	6.09895		
0.426963	1.32555	0.238072	2.23595	0.841096	4.72409	0.990778	6.18164			0.68795	2.35491	0.925805	6.0733		
0.428199	1.3288	0.240156	2.23587	0.845472	4.66945	0.996539	6.18532			0.690127	2.31982	0.931451	6.04667		
0.429439	1.33214	0.242239	2.2358	0.849797	4.61514	1.0023	6.18703			0.692273	2.28575	0.937072	6.019		
0.430682	1.33557	0.244322	2.23576	0.854071	4.56117					0.694387	2.25279	0.942667	5.99037		
0.431928	1.33912	0.246405	2.23567	0.858296	4.50761					0.696471	2.22082	0.948235	5.96086		
0.433177	1.34272	0.248488	2.23562	0.862471	4.45445					0.698525	2.18986	0.953774	5.93046		
0.43443	1.34643	0.250571	2.23556	0.866596	4.4017					0.700551	2.15987	0.959285	5.89919		
0.435686	1.35023	0.252654	2.2355	0.870673	4.34942					0.70255	2.13082	0.964767	5.86714		
0.436946	1.35403	0.254736	2.23546	0.874701	4.29765					0.704522	2.10271	0.970218	5.83431		
0.438209	1.3579	0.256819	2.23541	0.878681	4.24632					0.706468	2.07546	0.975639	5.80076		
0.439476	1.36186	0.258902	2.23535	0.882614	4.19553					0.708389	2.0491	0.981027	5.76655		
0.440747	1.36589	0.260984	2.23528	0.886499	4.14527					0.710286	2.02358	0.986384	5.73161		
0.442021	1.36995	0.263067	2.23521	0.890338	4.09553					0.71216	1.99888	0.991708	5.69613		
0.4433	1.37403	0.265149	2.23517	0.894131	4.04638					0.714011	1.97495	0.996998	5.66011		
0.444582	1.37816	0.267232	2.23515	0.897878	3.99778					0.71584	1.95186	1.00225	5.64195		
0.445868	1.38235	0.269314	2.23507	0.90158	3.94971					0.717648	1.92951				
0.447157	1.38657	0.271397	2.23503	0.905238	3.90224					0.719435	1.90786				
0.448451	1.3908	0.273479	2.23497	0.908851	3.8554					0.721203	1.88693				
0.449749	1.39504	0.275561	2.23495	0.912422	3.80909					0.722951	1.86669				
0.451051	1.39936	0.277644	2.23489	0.915949	3.76337					0.724681	1.84712				
0.452357	1.40368	0.279726	2.23483	0.919434	3.71829					0.726393	1.82821				
0.453666	1.408	0.281808	2.23484	0.922878	3.67381					0.728088	1.80993				
0.45498	1.41236	0.28389	2.23477	0.92628	3.62989					0.729766	1.79226				
0.456298	1.41673	0.285972	2.2347	0.929642	3.58662					0.731428	1.77519				
0.45762	1.42112	0.288054	2.2347	0.932963	3.54396					0.733074	1.7587				
0.458946	1.42551	0.290136	2.23466	0.936246	3.50183					0.734705	1.74273				
0.460276	1.4299	0.292218	2.23461	0.939489	3.46037					0.736321	1.72732				
0.461611	1.43429	0.2943	2.23458	0.942694	3.41953					0.737923	1.7125				
0.462949	1.43872	0.296382	2.23453	0.945861	3.37927					0.739512	1.6981				
0.464292	1.44317	0.298464	2.23447	0.94899	3.33961					0.741088	1.68423				
0.465638	1.44756	0.300546	2.23443	0.952084	3.30056					0.742651	1.67086				
0.466989	1.45195	0.302628	2.23442	0.955141	3.26206					0.744201	1.6579				
0.468344	1.45641	0.30471	2.23441	0.958162	3.22421					0.74574	1.6455				
0.469703	1.46081	0.306791	2.23437	0.961149	3.18694					0.747267	1.63343				
0.471066	1.4652	0.308873	2.23431	0.964101	3.15021					0.748784	1.6218				
0.472433	1.46963	0.310955	2.23429	0.967019	3.11413					0.750289	1.61063				
0.473804	1.47405	0.313036	2.23424	0.969903	3.07861					0.751785	1.59985				
