Sym0		Asym0		Sym1		Sym2		Sym3		Asym1		Asym3		Asym4	
462  Points		491  Points		159  Points		121  Points		109  Points		337  Points		132  Points		105  Points	
Freq (MHz)	Vgr (m/ms)	Freq (MHz)	Vgr (m/ms)	Freq (MHz)	Vgr (m/ms)	Freq (MHz)	Vgr (m/ms)	Freq (MHz)	Vgr (m/ms)	Freq (MHz)	Vgr (m/ms)	Freq (MHz)	Vgr (m/ms)	Freq (MHz)	Vgr (m/ms)
0.00788428	8.64389	0.000649674	0.670434	0.279524	0.181173	0.458671	0.0732204	0.559058	0.157846	0.139759	0.326862	0.419263	0.0739732	0.698784	0.0896413
0.0159378	8.64189	0.00127431	0.774003	0.279693	0.281065	0.458739	0.108988	0.559205	0.215373	0.140063	0.58153	0.419332	0.146078	0.698867	0.131859
0.0239875	8.63685	0.00209194	0.973528	0.280048	0.480253	0.458874	0.180697	0.559459	0.330387	0.140842	1.08574	0.419535	0.290248	0.699029	0.216176
0.0320316	8.62968	0.00308838	1.15695	0.280588	0.678017	0.459076	0.252995	0.55982	0.44513	0.142086	1.57708	0.419873	0.434082	0.69927	0.300364
0.040068	8.62042	0.0042478	1.32283	0.281311	0.873814	0.459345	0.326182	0.560288	0.559481	0.143781	2.05042	0.420344	0.577389	0.699589	0.384437
0.0480948	8.60898	0.00555332	1.47067	0.282216	1.06714	0.459683	0.400337	0.560863	0.673411	0.145907	2.50178	0.420948	0.720009	0.699986	0.468355
0.0561099	8.59527	0.00698823	1.60082	0.283299	1.25751	0.460091	0.475772	0.561543	0.786795	0.148443	2.92833	0.421686	0.861768	0.700462	0.552036
0.0641111	8.5792	0.00853628	1.71405	0.284559	1.44437	0.46057	0.552814	0.562329	0.899524	0.151364	3.32815	0.422554	1.00261	0.701015	0.635463
0.0720962	8.56075	0.0101822	1.81147	0.285991	1.62729	0.461121	0.631532	0.563219	1.01153	0.154644	3.7005	0.423554	1.14228	0.701646	0.718673
0.0800631	8.53974	0.0119117	1.89453	0.287591	1.80593	0.461747	0.71221	0.564214	1.12275	0.158259	4.04536	0.424683	1.28062	0.702354	0.801524
0.0880091	8.51604	0.0137124	1.96484	0.289356	1.97996	0.462448	0.795123	0.565311	1.23313	0.162183	4.36324	0.42594	1.41756	0.70314	0.884023
0.0959318	8.48952	0.015573	2.02381	0.291281	2.14902	0.463228	0.880383	0.566512	1.34256	0.16639	4.65526	0.427324	1.55294	0.704002	0.966184
0.103828	8.45998	0.0174836	2.07297	0.293361	2.31281	0.464089	0.968286	0.567813	1.45097	0.170857	4.92283	0.428834	1.68659	0.70494	1.04789
0.111696	8.42728	0.0194358	2.11373	0.29559	2.47129	0.465033	1.05906	0.569215	1.55838	0.175563	5.16734	0.430467	1.81847	0.705954	1.12912
0.119532	8.39116	0.0214223	2.14726	0.297965	2.62425	0.466062	1.15286	0.570717	1.66464	0.180486	5.39049	0.432222	1.94842	0.707044	1.20992
0.127332	8.35137	0.0234369	2.17478	0.30048	2.7716	0.467181	1.24986	0.572317	1.76971	0.185607	5.59392	0.434098	2.07633	0.708209	1.29021
0.135094	8.30769	0.0252114	2.19455	0.30313	2.91338	0.468391	1.35025	0.574015	1.87358	0.19091	5.77907	0.436091	2.20215	0.709448	1.36995
0.142813	8.2598	0.0267356	2.20868	0.305909	3.04963	0.469697	1.45422	0.575808	1.97622	0.196376	5.94752	0.438201	2.32575	0.710761	1.44907
0.150485	8.20731	0.0280028	2.21878	0.308813	3.18057	0.471101	1.56187	0.577697	2.07757	0.201992	6.10067	0.440425	2.44705	0.712148	1.52762
0.158106	8.14994	0.0290085	2.22591	0.311836	3.30629	0.472607	1.67341	0.57968	2.17759	0.207744	6.23981	0.442761	2.56602	0.713608	1.60555
0.165671	8.08734	0.02975	2.23058	0.314974	3.42714	0.474219	1.78888	0.581755	2.27625	0.213619	6.36612	0.445207	2.6826	0.71514	1.68283
0.173176	8.01899	0.0302254	2.2333	0.318222	3.54353	0.475941	1.90835	0.583921	2.37352	0.219607	6.48068	0.44776	2.79666	0.716744	1.75945
0.180614	7.94445	0.0309096	2.23711	0.321577	3.65581	0.477775	2.03193	0.586178	2.46941	0.225695	6.58448	0.450418	2.90826	0.718419	1.83534
0.187979	7.86335	0.0316547	2.24083	0.325034	3.76459	0.479727	2.15956	0.588523	2.56393	0.231876	6.67841	0.453179	3.01735	0.720164	1.91052
0.195266	7.77506	0.0326698	2.24527	0.328591	3.87045	0.481799	2.29118	0.590955	2.65701	0.23814	6.76329	0.45604	3.12384	0.721979	1.98492
0.202467	7.67911	0.0339564	2.25035	0.332246	3.97398	0.483996	2.42685	0.593474	2.74863	0.244479	6.83981	0.459	3.22775	0.723862	2.05858
0.209575	7.57503	0.0355158	2.25544	0.335997	4.07602	0.486322	2.56641	0.596077	2.83884	0.250885	6.90869	0.462055	3.32908	0.725815	2.13148
0.216583	7.46229	0.0373492	2.26025	0.339841	4.17734	0.488779	2.7096	0.598764	2.92764	0.257352	6.97044	0.465203	3.42781	0.727834	2.20353
0.223481	7.34039	0.0394574	2.2645	0.343781	4.27869	0.491371	2.85625	0.601532	3.01494	0.263874	7.0256	0.468442	3.52397	0.729921	2.27476
0.230261	7.20894	0.0415689	2.26758	0.347814	4.38097	0.494101	3.00619	0.604382	3.10083	0.270444	7.07477	0.47177	3.61757	0.732073	2.34521
0.236914	7.06763	0.0436827	2.2697	0.351944	4.48498	0.496972	3.15901	0.60731	3.18531	0.276204	7.11301	0.475183	3.7086	0.734291	2.41478
0.24343	6.91625	0.0457982	2.2711	0.356172	4.5914	0.499987	3.31437	0.610317	3.26836	0.281138	7.14239	0.47868	3.79706	0.736573	2.48345
0.249801	6.75479	0.0479147	2.27187	0.3605	4.70096	0.503148	3.47192	0.613401	3.35001	0.285232	7.16455	0.482259	3.88308	0.738918	2.5513
0.256017	6.58331	0.0500316	2.27214	0.364931	4.81419	0.506457	3.63118	0.616559	3.43025	0.288478	7.18064	0.485916	3.96664	0.741327	2.61829
0.262069	6.40231	0.0521486	2.27206	0.36947	4.93137	0.509915	3.79163	0.619793	3.50913	0.290869	7.19177	0.48965	4.04778	0.743797	2.68438
0.267947	6.21234	0.0542653	2.27165	0.37412	5.05271	0.513522	3.95286	0.623098	3.58663	0.292402	7.1986	0.493459	4.12655	0.746329	2.74953
0.273645	6.01426	0.0563815	2.27101	0.378886	5.17807	0.51728	4.11442	0.626476	3.66283	0.294607	7.20795	0.497339	4.20296	0.748921	2.81378
0.279154	5.80927	0.0584971	2.27021	0.383769	5.30704	0.521189	4.27566	0.629924	3.73772	0.297007	7.2175	0.50129	4.27718	0.751572	2.87716
0.28447	5.5988	0.0606118	2.2693	0.388775	5.43902	0.525248	4.43613	0.633441	3.81134	0.300276	7.22949	0.505309	4.34922	0.754282	2.93968
0.289587	5.38447	0.0627257	2.26829	0.393904	5.57304	0.529455	4.59536	0.637026	3.88372	0.304418	7.24322	0.509395	4.41912	0.75705	3.00124
0.294503	5.16792	0.0648385	2.2672	0.399159	5.70808	0.533811	4.75282	0.640678	3.95487	0.309436	7.25771	0.513544	4.48699	0.759874	3.06186
0.299217	4.95096	0.0669504	2.26611	0.404541	5.84295	0.538312	4.90809	0.644395	4.02488	0.315335	7.27192	0.517756	4.55293	0.762755	3.12167
0.303729	4.73553	0.0690612	2.26498	0.410047	5.97631	0.542956	5.06078	0.648177	4.09371	0.322117	7.28466	0.522028	4.617	0.765691	3.18057
0.308041	4.52322	0.0711709	2.26383	0.415677	6.10687	0.547742	5.21044	0.652023	4.16143	0.328909	7.29366	0.526359	4.6792	0.768682	3.23852
0.312157	4.31562	0.0732796	2.26274	0.420681	6.21755	0.552665	5.3567	0.655932	4.22816	0.335708	7.29908	0.530747	4.73975	0.771726	3.29562
0.316083	4.11421	0.0753873	2.26161	0.425016	6.30896	0.557723	5.49937	0.659902	4.29387	0.34251	7.30102	0.535191	4.79874	0.774823	3.35187
0.319823	3.91999	0.0774938	2.26053	0.428648	6.38213	0.562913	5.63815	0.663933	4.35864	0.349313	7.2995	0.539689	4.85622	0.777972	3.40725
0.323387	3.73391	0.0795995	2.25948	0.431549	6.43829	0.568229	5.77273	0.668024	4.42255	0.356112	7.29467	0.54424	4.9123	0.781172	3.46176
0.326781	3.55665	0.0817041	2.25844	0.433698	6.47865	0.57367	5.90296	0.672174	4.48564	0.362906	7.28658	0.548843	4.96703	0.784422	3.5154
0.330014	3.3886	0.0838079	2.25748	0.435081	6.50403	0.579229	6.02873	0.676382	4.54794	0.36969	7.27529	0.553495	5.0206	0.787722	3.56827
0.333095	3.22998	0.0859107	2.25652	0.437077	6.53964	0.584903	6.14988	0.680648	4.60956	0.376462	7.26085	0.558198	5.0731	0.791071	3.62033
0.336033	3.08081	0.0880126	2.25557	0.43926	6.57744	0.590689	6.2663	0.684972	4.67061	0.38322	7.24323	0.562949	5.12457	0.794468	3.67156
0.338836	2.94098	0.0901137	2.25469	0.442248	6.62734	0.59658	6.37798	0.689352	4.73119	0.389959	7.22256	0.567747	5.17522	0.797913	3.72202
0.341513	2.81022	0.092214	2.25389	0.446058	6.68773	0.602573	6.48482	0.693788	4.79133	0.396678	7.19882	0.572592	5.22509	0.801404	3.77175
0.344073	2.6883	0.0943136	2.25308	0.450712	6.75691	0.608664	6.5868	0.69828	4.85113	0.403374	7.17193	0.577483	5.27429	0.804941	3.82073
0.346523	2.57482	0.0964124	2.25231	0.45623	6.83243	0.614847	6.68391	0.702827	4.91074	0.410042	7.14197	0.58242	5.32289	0.808524	3.86897
0.348871	2.4693	0.0985105	2.2516	0.462634	6.91178	0.621119	6.77603	0.70743	4.97027	0.416682	7.10894	0.587402	5.37102	0.812151	3.91652
0.351124	2.37135	0.100608	2.25091	0.469109	6.98343	0.627473	6.86328	0.712089	5.02984	0.423289	7.07283	0.592428	5.41879	0.815822	3.96336
0.353289	2.28056	0.102705	2.2502	0.475647	7.04734	0.633907	6.94559	0.716803	5.0896	0.429861	7.03365	0.597499	5.46622	0.819536	4.00957
0.355374	2.19639	0.104801	2.24955	0.482241	7.10383	0.640416	7.02289	0.721573	5.14972	0.436396	6.99128	0.602614	5.51347	0.823293	4.05518
0.357382	2.1185	0.106897	2.24897	0.488884	7.15328	0.646994	7.09523	0.726399	5.21034	0.442889	6.94585	0.607773	5.56051	0.827092	4.10013
0.359321	2.04643	0.108992	2.24839	0.49557	7.19595	0.653637	7.16252	0.731282	5.27166	0.449338	6.89731	0.612976	5.60742	0.830933	4.14447
0.361195	1.97971	0.111086	2.24784	0.502293	7.23226	0.66034	7.22471	0.736222	5.33388	0.455741	6.84566	0.618222	5.6543	0.834815	4.18826
0.36301	1.91805	0.11318	2.24735	0.509047	7.26272	0.667099	7.2818	0.741221	5.39716	0.462094	6.7909	0.622829	5.69511	0.838737	4.23152
0.36477	1.86108	0.115274	2.24681	0.515826	7.28758	0.673909	7.33365	0.746279	5.46182	0.468395	6.73301	0.626783	5.72983	0.8427	4.27423
0.366478	1.80844	0.117367	2.24632	0.522626	7.30726	0.680765	7.38014	0.751398	5.52802	0.474641	6.6721	0.63007	5.75859	0.846702	4.31638
0.368139	1.75979	0.11946	2.24589	0.529443	7.32223	0.687661	7.42119	0.75658	5.59604	0.480828	6.60817	0.632682	5.78127	0.850743	4.35805
0.369757	1.71486	0.121552	2.24546	0.536271	7.33272	0.694593	7.45672	0.761826	5.66624	0.486954	6.54123	0.634608	5.79793	0.854823	4.39926
0.371335	1.67341	0.123644	2.24506	0.543106	7.33906	0.701556	7.48653	0.767138	5.7388	0.493017	6.47136	0.635844	5.80861	0.858941	4.44002
0.372875	1.63511	0.125735	2.24464	0.549946	7.34157	0.708544	7.51042	0.77252	5.81406	0.499013	6.39867	0.637624	5.82388	0.863096	4.48031
0.374382	1.59982	0.127826	2.24424	0.556786	7.34052	0.715551	7.52832	0.777972	5.89229	0.50494	6.32321	0.639565	5.84057	0.867289	4.52015
0.375856	1.56726	0.129917	2.2439	0.563624	7.33615	0.722572	7.54023	0.783499	5.97374	0.510796	6.24513	0.642213	5.86328	0.871519	4.55956
0.377302	1.53722	0.132008	2.24358	0.570457	7.32873	0.728697	7.54558	0.789104	6.05872	0.516577	6.16452	0.645577	5.89184	0.875785	4.59854
0.378721	1.50957	0.134098	2.24324	0.577281	7.31843	0.73392	7.54627	0.794789	6.14746	0.522282	6.08155	0.649667	5.92633	0.880088	4.63717
0.380115	1.4841	0.136188	2.24289	0.584094	7.30536	0.738239	7.54404	0.800559	6.24011	0.527909	5.99635	0.654495	5.96666	0.884426	4.67537
0.381486	1.46069	0.138277	2.2426	0.590893	7.28975	0.741652	7.54073	0.806417	6.3368	0.533456	5.9091	0.660076	6.01269	0.8888	4.71319
0.382837	1.43914	0.140367	2.24235	0.597677	7.27176	0.744161	7.53711	0.812367	6.43745	0.53892	5.81999	0.665699	6.05838	0.893209	4.7506
0.384168	1.41933	0.142456	2.24204	0.604443	7.25156	0.745766	7.53436	0.818412	6.54199	0.544301	5.72919	0.671365	6.1036	0.897652	4.78761
0.385482	1.40118	0.144544	2.24177	0.61119	7.2292	0.748072	7.52988	0.824557	6.65023	0.549596	5.63698	0.677072	6.14829	0.90213	4.82429
0.386779	1.38457	0.146633	2.24153	0.617914	7.20472	0.750576	7.52405	0.830804	6.76167	0.554805	5.54353	0.682821	6.19231	0.906642	4.86059
0.388062	1.36937	0.148721	2.24126	0.624615	7.17834	0.753979	7.51484	0.837157	6.87586	0.559926	5.44901	0.688611	6.23553	0.911187	4.89648
0.389331	1.35545	0.150809	2.24105	0.63129	7.15007	0.758277	7.50095	0.84278	6.97702	0.564958	5.35374	0.694441	6.27783	0.915766	4.93195
0.390587	1.34276	0.152897	2.2408	0.637938	7.11996	0.763462	7.48114	0.847639	7.0641	0.569902	5.25792	0.700309	6.31908	0.920377	4.96706
0.391833	1.33124	0.154985	2.24057	0.644558	7.08818	0.769526	7.45362	0.851702	7.13649	0.574756	5.1617	0.706216	6.35919	0.925021	5.00185
0.393068	1.32079	0.157072	2.24042	0.651146	7.05467	0.776454	7.41684	0.854945	7.19382	0.57952	5.06536	0.712159	6.398	0.929698	5.03618
0.394294	1.31132	0.15916	2.24019	0.657703	7.01957	0.783346	7.37516	0.857346	7.23598	0.584195	4.96911	0.718137	6.43538	0.934406	5.07014
0.395511	1.30278	0.161247	2.23997	0.664227	6.98283	0.790197	7.32901	0.85889	7.26284	0.58878	4.87315	0.72415	6.47121	0.939145	5.1037
0.396721	1.29507	0.163333	2.23982	0.670715	6.94453	0.797003	7.27917	0.861119	7.30143	0.593275	4.77768	0.730196	6.50546	0.943916	5.13684
0.39777	1.28902	0.16542	2.23964	0.677167	6.90477	0.803761	7.22667	0.863555	7.34325	0.597682	4.68281	0.736273	6.53804	0.948717	5.16964
0.398661	1.28435	0.167507	2.23944	0.683581	6.86354	0.810469	7.17244	0.866891	7.39966	0.602001	4.58879	0.742379	6.56876	0.953549	5.20199
0.399395	1.28076	0.169593	2.2393	0.689956	6.82088	0.817126	7.1175	0.871147	7.47043	0.606233	4.49579	0.748513	6.59759	0.957784	5.22984
0.399974	1.27811	0.17168	2.23916	0.696291	6.77677	0.823732	7.06285	0.876346	7.55461	0.610379	4.40384	0.754673	6.62453	0.961412	5.25336
0.400399	1.27633	0.173766	2.23898	0.702584	6.73131	0.830287	7.00938	0.88252	7.65112	0.614439	4.31319	0.760857	6.6495	0.964424	5.27268
0.40067	1.27516	0.175852	2.23881	0.708834	6.68456	0.836793	6.95793	0.889699	7.7584	0.618416	4.22388	0.767063	6.67243	0.966813	5.28786
0.401061	1.27362	0.177937	2.23866	0.71504	6.6365	0.843252	6.9092	0.896977	7.86145	0.62231	4.13598	0.77329	6.6933	0.968575	5.2989
0.401484	1.27207	0.180023	2.23854	0.721201	6.58717	0.849668	6.86378	0.904348	7.9597	0.626123	4.04969	0.779536	6.71212	0.969704	5.30594
0.402059	1.26989	0.182109	2.23841	0.727315	6.53665	0.856042	6.82199	0.911809	8.05284	0.629856	3.96498	0.785797	6.72886	0.97133	5.316
0.402785	1.26749	0.184194	2.23828	0.733381	6.48495	0.86238	6.78411	0.919354	8.14069	0.633511	3.88194	0.792074	6.74349	0.9731	5.3269
0.403662	1.26486	0.186279	2.23817	0.739399	6.43207	0.868684	6.75018	0.926978	8.22324	0.63709	3.80065	0.798363	6.75604	0.975514	5.34171
0.404687	1.26217	0.188365	2.23804	0.745366	6.37813	0.874958	6.7203	0.934677	8.30056	0.640593	3.72112	0.804663	6.76653	0.978577	5.36027
0.405862	1.25956	0.19045	2.23791	0.751284	6.32318	0.881206	6.69433	0.942445	8.37268	0.644023	3.64341	0.810972	6.77499	0.982295	5.3825
0.407034	1.25741	0.192535	2.2378	0.757149	6.26721	0.887432	6.67204	0.950278	8.43988	0.647382	3.56749	0.817288	6.78139	0.986675	5.40825
0.408205	1.25571	0.19462	2.23768	0.762962	6.2103	0.893639	6.65336	0.958172	8.50229	0.650671	3.49343	0.823608	6.78575	0.991728	5.43744
0.409374	1.25446	0.196704	2.23758	0.768721	6.15255	0.89983	6.63793	0.966122	8.56016	0.653892	3.42124	0.829932	6.78816	0.996807	5.46628
0.410543	1.25358	0.198789	2.23749	0.774426	6.09397	0.906008	6.6255	0.974123	8.61385	0.657046	3.35083	0.836257	6.78863	1.00191	5.4806
0.41171	1.25307	0.200874	2.23738	0.780077	6.03462	0.912176	6.6158	0.982172	8.66355	0.660136	3.2823	0.842582	6.78718		
0.412878	1.25296	0.202958	2.23728	0.785671	5.97458	0.918336	6.60854	0.990266	8.70945	0.663162	3.21566	0.848904	6.78382		
0.414045	1.25316	0.205043	2.2372	0.79121	5.91387	0.92449	6.60348	0.998402	8.75185	0.666128	3.15078	0.855223	6.77862		
0.415213	1.25366	0.207127	2.23712	0.796691	5.85265	0.93064	6.60032	1.00657	8.77221	0.669034	3.08768	0.861536	6.77159		
0.416381	1.25443	0.209211	2.23701	0.802115	5.79091	0.936789	6.59878			0.671881	3.0264	0.867841	6.76284		
0.41755	1.25547	0.211295	2.23691	0.807482	5.72869	0.942937	6.59864			0.674673	2.96686	0.874137	6.75235		
0.41872	1.25679	0.21338	2.23683	0.81279	5.66616	0.949085	6.5997			0.67741	2.90908	0.880423	6.74014		
0.419892	1.25837	0.215464	2.23675	0.81804	5.60329	0.955234	6.60169			0.680094	2.85302	0.886697	6.72632		
0.421065	1.26015	0.217548	2.23668	0.823231	5.54018	0.961386	6.60445			0.682726	2.79858	0.892957	6.71087		
0.42224	1.2621	0.219631	2.2366	0.828364	5.47695	0.967541	6.6078			0.685309	2.7458	0.899202	6.69381		
0.423417	1.26429	0.221715	2.23653	0.833437	5.41354	0.973699	6.61157			0.687843	2.69469	0.90543	6.6752		
0.424596	1.2667	0.223799	2.23645	0.838451	5.35009	0.979861	6.61561			0.69033	2.64511	0.91164	6.65517		
0.425777	1.26926	0.225883	2.23638	0.843406	5.28669	0.986027	6.61972			0.692771	2.59703	0.917831	6.63366		
0.426961	1.27193	0.227966	2.23631	0.848302	5.22334	0.992196	6.62386			0.695169	2.55047	0.924001	6.61071		
0.428148	1.2748	0.23005	2.23623	0.853139	5.16011	0.998369	6.62788			0.697524	2.50544	0.93015	6.58638		
0.429337	1.27781	0.232133	2.23616	0.857918	5.09703	1.00455	6.6298			0.699838	2.46183	0.936274	6.56074		
0.430529	1.28089	0.234217	2.23612	0.862637	5.03418					0.702111	2.41959	0.942375	6.53382		
0.431723	1.28419	0.2363	2.23607	0.867298	4.97163					0.704346	2.37873	0.94845	6.5056		
0.432922	1.28756	0.238383	2.23597	0.871901	4.90941					0.706544	2.33918	0.954497	6.47618		
0.434123	1.29104	0.240466	2.23592	0.876446	4.8475					0.708705	2.30095	0.960517	6.44562		
0.435327	1.29465	0.24255	2.23589	0.880934	4.78604					0.710831	2.26397	0.966508	6.41389		
0.436535	1.29828	0.244633	2.23581	0.885365	4.72498					0.712924	2.22819	0.972469	6.38107		
0.437746	1.30204	0.246716	2.23576	0.889738	4.66436					0.714983	2.19364	0.978398	6.34723		
0.438961	1.30594	0.248799	2.23571	0.894056	4.60427					0.717011	2.16021	0.984296	6.31237		
0.44018	1.30986	0.250882	2.23564	0.898318	4.54471					0.719009	2.1279	0.990161	6.27655		
0.441402	1.3138	0.252965	2.23561	0.902525	4.48571					0.720976	2.09673	0.995992	6.23986		
0.442628	1.31789	0.255048	2.23555	0.906677	4.42727					0.722916	2.06657	1.00179	6.2213		
0.443858	1.32203	0.25713	2.23553	0.910774	4.36942					0.724827	2.03742				
0.445092	1.32618	0.259213	2.23548	0.914819	4.31218					0.726712	2.0093				
0.446329	1.33038	0.261296	2.23542	0.91881	4.25562					0.728571	1.98213				
0.447571	1.33465	0.263379	2.23535	0.922748	4.19966					0.730406	1.95587				
0.448816	1.33901	0.265461	2.23531	0.926635	4.14436					0.732216	1.93055				
0.450066	1.34335	0.267544	2.2353	0.930471	4.08975					0.734003	1.9061				
0.451319	1.34772	0.269627	2.23525	0.934256	4.03583					0.735768	1.88248				
0.452577	1.35218	0.271709	2.23519	0.937991	3.98261					0.737511	1.85972				
0.453839	1.3566	0.273792	2.23516	0.941677	3.93007					0.739233	1.83776				
0.455105	1.36108	0.275874	2.23511	0.945315	3.87824					0.740935	1.81653				
0.456375	1.3656	0.277956	2.23505	0.948904	3.82709					0.742618	1.79606				
0.457649	1.37009	0.280039	2.23506	0.952446	3.77669					0.744282	1.7763				
0.458928	1.37467	0.282121	2.23502	0.955941	3.72702					0.745928	1.75727				
0.460211	1.3792	0.284204	2.23497	0.959391	3.6781					0.747557	1.73893				
0.461498	1.38377	0.286286	2.23494	0.962795	3.62986					0.749168	1.72119				
0.46279	1.38837	0.288368	2.23489	0.966155	3.58231					0.750764	1.70415				
0.464085	1.39293	0.29045	2.23483	0.96947	3.53554					0.752344	1.68768				
0.465385	1.39756	0.292532	2.23484	0.972743	3.48948					0.753909	1.6718				
0.466689	1.40214	0.294615	2.2348	0.975973	3.44411					0.755459	1.65653				
0.467998	1.40674	0.296697	2.23475	0.97916	3.39953					0.756995	1.64179				
0.469311	1.41135	0.298779	2.23476	0.982307	3.35563					0.758518	1.62761				
0.470628	1.41596	0.300861	2.23473	0.985413	3.31244					0.760028	1.61397				
0.471949	1.42057	0.302943	2.23467	0.98848	3.26998					0.761526	1.60077				
0.473275	1.42515	0.305025	2.23461	0.991507	3.2282					0.763011	1.58809				
0.474605	1.42978	0.307107	2.23462	0.994495	3.18717					0.764485	1.5759				
0.475939	1.43437	0.309189	2.23462	0.997446	3.14684					0.765948	1.56412				
0.477278	1.43893	0.311271	2.23455	1.00036	3.12685					0.7674	1.55281				
0.47862	1.44356	0.313353	2.23451							0.768841	1.54196				
0.479967	1.44811	0.315435	2.23449							0.770273	1.53148				
0.481319	1.45265	0.317517	2.23448							0.771695	1.52141				
0.482674	1.45723	0.319598	2.23444							0.773108	1.51175				
0.484034	1.46179	0.32168	2.23442							0.774512	1.50242				
0.485398	1.4663	0.323762	2.23441							0.775907	1.49347				
0.486766	1.47079	0.325844	2.23437							0.777295	1.4849				
0.488139	1.47531	0.327926	2.23435							0.778674	1.47665				
0.489516	1.47976	0.330007	2.23434							0.780046	1.46872				
0.490896	1.48423	0.332089	2.2343							0.781411	1.46113				
0.492281	1.48873	0.334171	2.23428							0.782769	1.45382				
