Sym0		Asym0		Sym1		Sym2		Sym3		Asym2		Asym3		Asym4	
464  Points		493  Points		174  Points		128  Points		113  Points		346  Points		140  Points		112  Points	
Freq (MHz)	Vph (m/ms)	Freq (MHz)	Vph (m/ms)	Freq (MHz)	Vph (m/ms)	Freq (MHz)	Vph (m/ms)	Freq (MHz)	Vph (m/ms)	Freq (MHz)	Vph (m/ms)	Freq (MHz)	Vph (m/ms)	Freq (MHz)	Vph (m/ms)
0.00738265	8.18735	4.20886e-005	0.0707177	0.279512	1427.49	0.458666	1374.7	0.559052	698.301	0.139862	211.931	0.419286	712.301	0.698774	2707.41
0.015009	8.18637	0.000275815	0.180642	0.279628	248.006	0.458723	362.528	0.559182	322.8	0.140381	88.1993	0.419421	275.874	0.698828	587.353
0.0226318	8.18479	0.00071054	0.289007	0.279905	135.929	0.458846	208.848	0.559407	209.989	0.141324	56.0068	0.419673	171.154	0.69895	329.462
0.0302493	8.18255	0.00133858	0.394834	0.280345	93.7329	0.459036	146.716	0.559727	155.667	0.142679	41.2962	0.420044	124.137	0.699142	228.988
0.0378595	8.17966	0.00214951	0.497347	0.280945	71.6223	0.459294	113.115	0.560142	123.724	0.144434	32.9252	0.420532	97.4487	0.699402	175.514
0.0454608	8.17612	0.00313047	0.595867	0.281704	58.032	0.45962	92.069	0.560652	102.701	0.146569	27.5588	0.421137	80.2608	0.699732	142.321
0.0530509	8.17188	0.00426741	0.689924	0.28262	48.8456	0.460014	77.655	0.561256	87.823	0.149066	23.8501	0.421859	68.2752	0.700129	119.716
0.0606281	8.16696	0.0055453	0.77916	0.28369	42.2304	0.460479	67.1691	0.561953	76.7439	0.151903	21.1511	0.422697	59.4469	0.700596	103.333
0.0681902	8.16134	0.00694909	0.863377	0.284913	37.2466	0.461015	59.2015	0.562745	68.1772	0.155058	19.1112	0.42365	52.6784	0.701131	90.9183
0.0757351	8.15498	0.00846396	0.94249	0.286285	33.3624	0.461623	52.9451	0.563628	61.3583	0.15851	17.5242	0.424717	47.3281	0.701734	81.1877
0.0832605	8.14788	0.010076	1.01653	0.287803	30.2544	0.462305	47.9043	0.564604	55.8045	0.162235	16.261	0.425897	42.9956	0.702404	73.3578
0.0907641	8.14002	0.0117722	1.08561	0.289464	27.7146	0.463064	43.7583	0.565671	51.1955	0.166213	15.2369	0.427188	39.4184	0.703143	66.923
0.0982435	8.13136	0.0135406	1.1499	0.291263	25.603	0.463899	40.2901	0.56683	47.311	0.170423	14.3935	0.42859	36.4169	0.703948	61.5423
0.105696	8.12186	0.0153708	1.20961	0.293197	23.822	0.464815	37.3475	0.568078	43.994	0.174848	13.69	0.430101	33.8644	0.704821	56.9776
0.113119	8.11152	0.0172531	1.265	0.295263	22.3016	0.465813	34.8209	0.569415	41.1299	0.179469	13.0964	0.43172	31.6687	0.70576	53.0574
0.120509	8.10027	0.0191796	1.31632	0.297455	20.9901	0.466894	32.6292	0.57084	38.6329	0.184269	12.5906	0.433445	29.7613	0.706766	49.655
0.127863	8.0881	0.0211429	1.36386	0.299771	19.8485	0.468063	30.7112	0.572353	36.4377	0.189233	12.156	0.435274	28.0899	0.707837	46.6751
0.135179	8.07494	0.0231369	1.40787	0.302205	18.847	0.46932	29.0197	0.573953	34.4936	0.194347	11.7795	0.437207	26.6144	0.708975	44.0441
0.142452	8.06076	0.0251563	1.44862	0.304755	17.9623	0.470669	27.5178	0.575638	32.7605	0.199598	11.4511	0.43924	25.3031	0.710177	41.7049
0.149678	8.04551	0.0269333	1.48168	0.307415	17.1759	0.472113	26.1764	0.577407	31.2065	0.204974	11.1628	0.441373	24.1308	0.711444	39.612
0.156854	8.02912	0.0284588	1.50818	0.310182	16.473	0.473655	24.9718	0.57926	29.8058	0.210464	10.9083	0.443604	23.0773	0.712775	37.7289
0.163975	8.01155	0.0297266	1.52899	0.313054	15.8417	0.475296	23.8851	0.581196	28.5373	0.216058	10.6824	0.44593	22.1259	0.71417	36.0261
0.171036	7.99271	0.0307326	1.54477	0.316026	15.272	0.477041	22.9006	0.583213	27.3836	0.221746	10.4809	0.44835	21.263	0.715628	34.4792
0.178033	7.97256	0.0314741	1.55602	0.319095	14.756	0.478892	22.0052	0.58531	26.3302	0.227521	10.3002	0.450862	20.4773	0.717149	33.068
0.184959	7.95101	0.0319494	1.56306	0.32226	14.2868	0.480852	21.1882	0.587487	25.3651	0.233373	10.1376	0.453464	19.7594	0.718732	31.7759
0.19181	7.92798	0.0326336	1.57298	0.325518	13.8588	0.482924	20.4403	0.589742	24.4778	0.239296	9.99052	0.456154	19.1011	0.720377	30.5886
0.198579	7.90341	0.0333785	1.58349	0.328868	13.4672	0.485111	19.7539	0.592074	23.6596	0.24451	9.87353	0.45893	18.4958	0.722082	29.4942
0.20526	7.8772	0.0343934	1.59734	0.332309	13.108	0.487415	19.1222	0.594482	22.9032	0.24899	9.78107	0.46179	17.9375	0.723848	28.4824
0.211845	7.84927	0.0356797	1.61417	0.335839	12.7777	0.489839	18.5397	0.596965	22.2019	0.252718	9.7092	0.464732	17.4213	0.725674	27.5445
0.218328	7.81954	0.0372386	1.63355	0.33946	12.4733	0.492385	18.0013	0.599523	21.5503	0.255678	9.65509	0.467754	16.9428	0.72756	26.6728
0.224701	7.78792	0.0390713	1.655	0.343172	12.1923	0.495056	17.5027	0.602152	20.9434	0.257863	9.61673	0.470853	16.4983	0.729504	25.8607
0.230957	7.75434	0.0411787	1.67804	0.346977	11.9325	0.497854	17.0403	0.604854	20.377	0.259264	9.59279	0.474029	16.0845	0.731506	25.1026
0.237088	7.71871	0.0432895	1.69953	0.350875	11.6919	0.50078	16.6108	0.607626	19.8474	0.261282	9.55919	0.477279	15.6985	0.733565	24.3933
0.243085	7.68098	0.045403	1.71961	0.354871	11.469	0.503836	16.2112	0.610468	19.3514	0.263481	9.5237	0.480602	15.3377	0.735681	23.7286
0.248941	7.64108	0.0475181	1.73837	0.358965	11.2622	0.507023	15.8389	0.613378	18.8858	0.26648	9.47708	0.483994	15	0.737853	23.1043
0.25465	7.59898	0.0496344	1.75595	0.363161	11.0703	0.510342	15.4917	0.616356	18.4483	0.270285	9.42068	0.487455	14.6833	0.740081	22.5172
0.260203	7.55464	0.0517515	1.77242	0.367463	10.892	0.513793	15.1675	0.6194	18.0364	0.274906	9.35604	0.490983	14.3858	0.742363	21.964
0.265594	7.50807	0.0538687	1.78788	0.371873	10.7265	0.517378	14.8645	0.62251	17.6482	0.28035	9.28475	0.494576	14.106	0.7447	21.442
0.270818	7.45928	0.055986	1.80242	0.376394	10.5728	0.521094	14.5809	0.625684	17.2817	0.286624	9.2084	0.498231	13.8424	0.747089	20.9489
0.27587	7.40832	0.0581028	1.81609	0.381028	10.43	0.524943	14.3154	0.628922	16.9353	0.292924	9.13728	0.501948	13.5938	0.749532	20.4823
0.280746	7.35524	0.0602192	1.82898	0.385777	10.2974	0.528922	14.0665	0.632223	16.6076	0.299244	9.07083	0.505726	13.359	0.752027	20.0402
0.285445	7.30015	0.0623349	1.84114	0.39001	10.1896	0.533032	13.8331	0.635585	16.297	0.305583	9.00856	0.509561	13.137	0.754573	19.6209
0.289964	7.24315	0.0644497	1.85262	0.393689	10.103	0.53727	13.6139	0.639009	16.0025	0.311937	8.95003	0.513453	12.9269	0.75717	19.2227
0.294305	7.18439	0.0665637	1.86348	0.396779	10.0349	0.541634	13.4079	0.642492	15.7229	0.318301	8.89486	0.517401	12.7277	0.759817	18.8442
0.29847	7.12402	0.0686768	1.87377	0.399254	9.98322	0.546123	13.2143	0.646035	15.4572	0.324674	8.84271	0.521402	12.5388	0.762513	18.484
0.30246	7.06221	0.0707889	1.88351	0.40109	9.94639	0.550735	13.0321	0.649637	15.2044	0.331051	8.79327	0.525456	12.3593	0.765258	18.1408
0.306281	6.99916	0.0728999	1.89276	0.402274	9.92332	0.555465	12.8605	0.653296	14.9638	0.33743	8.74627	0.529562	12.1888	0.768051	17.8136
0.309936	6.93504	0.07501	1.90155	0.403985	9.89084	0.560312	12.6988	0.657013	14.7345	0.343809	8.70146	0.533718	12.0266	0.770891	17.5013
0.313433	6.87005	0.077119	1.9099	0.405858	9.85641	0.565273	12.5463	0.660787	14.5158	0.350183	8.65862	0.537923	11.8721	0.773778	17.2029
0.316776	6.80437	0.079227	1.91786	0.408429	9.81102	0.570343	12.4024	0.664617	14.3071	0.356551	8.61755	0.542177	11.7249	0.776712	16.9177
0.319974	6.73821	0.0813341	1.92543	0.411717	9.75589	0.575521	12.2664	0.668503	14.1078	0.36291	8.57808	0.546478	11.5844	0.779691	16.6448
0.323032	6.67172	0.0834402	1.93267	0.415748	9.69244	0.580802	12.1379	0.672445	13.9173	0.369257	8.54003	0.550825	11.4505	0.782714	16.3835
0.32596	6.60508	0.0855453	1.93957	0.420549	9.62224	0.586182	12.0164	0.676441	13.7352	0.37559	8.50326	0.555218	11.3225	0.785782	16.1331
0.328763	6.53845	0.0876495	1.94617	0.426152	9.54692	0.591658	11.9014	0.680493	13.5609	0.381905	8.46763	0.559656	11.2002	0.788894	15.893
0.33145	6.47196	0.0897529	1.95248	0.431849	9.47674	0.597226	11.7924	0.684599	13.3941	0.388201	8.43301	0.564138	11.0832	0.792049	15.6625
0.334027	6.40574	0.0918554	1.95852	0.437634	9.41128	0.602882	11.689	0.688761	13.2343	0.394474	8.39929	0.568665	10.9713	0.795246	15.4413
0.336501	6.33992	0.093957	1.96431	0.443501	9.35011	0.608622	11.5909	0.692977	13.0811	0.400723	8.36637	0.573234	10.8642	0.798485	15.2287
0.33888	6.27459	0.0960579	1.96986	0.449444	9.29286	0.614442	11.4977	0.697249	12.9342	0.406944	8.33415	0.577847	10.7616	0.801766	15.0243
0.341169	6.20984	0.098158	1.97519	0.455455	9.23917	0.620337	11.4091	0.701576	12.7934	0.413136	8.30253	0.582502	10.6633	0.805088	14.8276
0.343374	6.14576	0.100257	1.98031	0.461529	9.18872	0.626304	11.3248	0.705959	12.6583	0.419295	8.27143	0.586594	10.5809	0.808449	14.6384
0.345502	6.08242	0.102356	1.98523	0.467659	9.1412	0.632338	11.2445	0.710399	12.5286	0.425419	8.24078	0.590107	10.513	0.811851	14.4561
0.347557	6.01986	0.104454	1.98996	0.473839	9.09634	0.638434	11.1679	0.714897	12.4041	0.431506	8.21051	0.593029	10.4585	0.815292	14.2804
0.349546	5.95815	0.106551	1.99451	0.480064	9.05389	0.644589	11.0947	0.719453	12.2845	0.437553	8.18054	0.595351	10.4163	0.818772	14.1111
0.351471	5.89731	0.108648	1.9989	0.486326	9.01362	0.650797	11.0248	0.724068	12.1697	0.443557	8.15082	0.597065	10.3858	0.82229	13.9478
0.353339	5.83739	0.110744	2.00313	0.492622	8.97531	0.657054	10.9578	0.728744	12.0595	0.449517	8.12129	0.598165	10.3665	0.825846	13.7902
0.355152	5.77841	0.11284	2.00721	0.498946	8.93879	0.663355	10.8936	0.733483	11.9536	0.455429	8.09189	0.599749	10.3391	0.829439	13.638
0.356916	5.72039	0.114935	2.01114	0.505293	8.90388	0.669695	10.832	0.738287	11.8519	0.461291	8.06258	0.601476	10.3098	0.83307	13.491
0.358633	5.66334	0.11703	2.01495	0.511659	8.87043	0.67607	10.7728	0.743156	11.7543	0.467101	8.03331	0.603834	10.2705	0.836737	13.349
0.360307	5.60728	0.119124	2.01862	0.51804	8.8383	0.681649	10.723	0.748094	11.6606	0.472856	8.00404	0.60683	10.222	0.84044	13.2117
0.361941	5.55221	0.121217	2.02217	0.524432	8.80735	0.686419	10.6817	0.753103	11.5706	0.478555	7.97472	0.610474	10.1648	0.84418	13.0789
0.363538	5.49813	0.12331	2.0256	0.530831	8.77749	0.690373	10.6484	0.758186	11.4843	0.484194	7.94534	0.614778	10.1	0.847954	12.9505
0.365101	5.44504	0.125403	2.02893	0.537235	8.74859	0.693503	10.6225	0.763346	11.4016	0.489772	7.91584	0.619756	10.0283	0.851763	12.8261
0.366632	5.39294	0.127495	2.03215	0.54364	8.72058	0.695808	10.6038	0.768586	11.3223	0.495286	7.88622	0.624775	9.95933	0.855608	12.7058
0.368134	5.34183	0.129587	2.03527	0.550043	8.69336	0.697283	10.5919	0.773908	11.2463	0.500735	7.85643	0.629836	9.89307	0.859486	12.5892
0.369609	5.29168	0.131679	2.03829	0.556441	8.66686	0.699405	10.5749	0.779317	11.1736	0.506116	7.82645	0.634938	9.82935	0.863398	12.4762
0.371059	5.24251	0.13377	2.04122	0.562832	8.64102	0.701713	10.5567	0.784816	11.1041	0.511429	7.79628	0.64008	9.76808	0.867344	12.3667
0.372485	5.19428	0.135861	2.04406	0.569214	8.61575	0.704853	10.5323	0.790408	11.0378	0.51667	7.76588	0.645264	9.70913	0.871323	12.2606
0.37389	5.14701	0.137951	2.04683	0.575584	8.59102	0.708825	10.5018	0.795359	10.9824	0.52184	7.73526	0.650488	9.65242	0.875335	12.1577
0.375275	5.10065	0.140041	2.04951	0.58194	8.56676	0.713629	10.4657	0.799639	10.937	0.526935	7.70439	0.655751	9.59783	0.87938	12.0578
0.376642	5.05522	0.142131	2.05211	0.588281	8.54292	0.719263	10.4242	0.80322	10.9006	0.531956	7.67327	0.661054	9.54528	0.883456	11.9609
0.377992	5.01068	0.144221	2.05464	0.594603	8.51948	0.725719	10.3776	0.806079	10.8726	0.536901	7.6419	0.666397	9.49469	0.887565	11.8668
0.379327	4.96703	0.14631	2.0571	0.600907	8.49637	0.732161	10.3321	0.808196	10.8525	0.541769	7.61026	0.671777	9.44596	0.891705	11.7755
0.380647	4.92424	0.148399	2.05949	0.607189	8.47357	0.738584	10.2875	0.809558	10.8398	0.54656	7.57838	0.677195	9.39901	0.895876	11.6868
0.381955	4.88231	0.150488	2.06182	0.613449	8.45105	0.744983	10.2436	0.811526	10.8218	0.551272	7.54623	0.68265	9.35376	0.900078	11.6006
0.383251	4.84122	0.152577	2.06409	0.619684	8.42876	0.751352	10.2005	0.813677	10.8025	0.555906	7.51384	0.688141	9.31014	0.904311	11.5169
0.384371	4.80607	0.154665	2.0663	0.625894	8.40668	0.757687	10.1581	0.816625	10.7769	0.560462	7.4812	0.693666	9.26807	0.908574	11.4355
0.385319	4.7766	0.156753	2.06845	0.632076	8.38479	0.763985	10.1161	0.820389	10.7454	0.564938	7.44832	0.699225	9.22747	0.912867	11.3563
0.3861	4.75256	0.158841	2.07054	0.63823	8.36307	0.770242	10.0747	0.824993	10.7087	0.569336	7.41522	0.704816	9.18829	0.916632	11.2892
0.386715	4.73376	0.160929	2.07258	0.644354	8.34147	0.776456	10.0337	0.830469	10.6673	0.573656	7.38191	0.710439	9.15044	0.919859	11.2332
0.387166	4.72005	0.163016	2.07457	0.650446	8.31999	0.782626	9.99312	0.836851	10.6222	0.577898	7.34839	0.716091	9.11388	0.92254	11.1877
0.387454	4.71133	0.165103	2.07652	0.656506	8.29861	0.788751	9.95292	0.843337	10.5794	0.582062	7.31468	0.721771	9.07852	0.924667	11.1523
0.387867	4.69887	0.16719	2.07841	0.662533	8.27731	0.794831	9.9131	0.849925	10.5388	0.58615	7.2808	0.727479	9.04432	0.926235	11.1266
0.388315	4.68541	0.169277	2.08026	0.668524	8.25606	0.800867	9.87364	0.856612	10.5005	0.590161	7.24676	0.733211	9.01121	0.927241	11.1102
0.388924	4.66726	0.171364	2.08206	0.67448	8.23486	0.80686	9.83457	0.863396	10.4641	0.594097	7.21258	0.738968	8.97914	0.92869	11.0869
0.38969	4.64456	0.17345	2.08383	0.680398	8.21368	0.812814	9.79589	0.870271	10.4297	0.597959	7.17827	0.744746	8.94805	0.930267	11.0618
0.390614	4.61749	0.175537	2.08555	0.686278	8.19252	0.818729	9.75761	0.877235	10.397	0.601748	7.14386	0.750544	8.91789	0.932419	11.028
0.391694	4.58623	0.177623	2.08723	0.692119	8.17137	0.824609	9.71976	0.884283	10.3661	0.605465	7.10935	0.756362	8.88861	0.93515	10.986
0.392927	4.55103	0.179709	2.08887	0.69792	8.1502	0.830457	9.68236	0.891411	10.3368	0.609111	7.07476	0.762196	8.86016	0.938466	10.936
0.394156	4.51652	0.181795	2.09048	0.703679	8.12901	0.836276	9.64543	0.898614	10.3089	0.612688	7.04012	0.768045	8.83249	0.942375	10.8786
0.395381	4.4827	0.183881	2.09205	0.709396	8.10779	0.84207	9.609	0.905888	10.2824	0.616196	7.00543	0.773907	8.80556	0.946888	10.8144
0.396601	4.44953	0.185966	2.09359	0.71507	8.08652	0.847842	9.57308	0.913228	10.2573	0.619637	6.97071	0.779782	8.77933	0.951427	10.7518
0.397819	4.41702	0.188052	2.09509	0.720699	8.06521	0.853594	9.5377	0.92063	10.2333	0.623012	6.93599	0.785666	8.75376	0.955992	10.6909
0.399033	4.38515	0.190137	2.09656	0.726284	8.04384	0.859331	9.50287	0.92809	10.2105	0.626323	6.90127	0.791558	8.7288	0.960585	10.6315
0.400246	4.35389	0.192222	2.098	0.731823	8.02241	0.865054	9.4686	0.935604	10.1887	0.629572	6.86657	0.797458	8.70442	0.965203	10.5735
0.401456	4.32324	0.194307	2.09941	0.737316	8.0009	0.870766	9.43491	0.943169	10.168	0.632759	6.8319	0.803362	8.68059	0.969847	10.5171
0.402665	4.29318	0.196392	2.10079	0.742762	7.97932	0.876469	9.40179	0.95078	10.1481	0.635886	6.79729	0.809269	8.65726	0.974517	10.462
0.403873	4.2637	0.198477	2.10214	0.748159	7.95766	0.882167	9.36927	0.958436	10.1291	0.638954	6.76273	0.815178	8.63441	0.979211	10.4083
0.40508	4.23479	0.200562	2.10346	0.753508	7.93591	0.88786	9.33734	0.966131	10.1108	0.641965	6.72826	0.821086	8.61201	0.983931	10.3559
0.406286	4.20643	0.202647	2.10476	0.758809	7.91408	0.893551	9.30601	0.973865	10.0934	0.644921	6.69387	0.826994	8.59003	0.988675	10.3048
0.407492	4.17862	0.204731	2.10603	0.764059	7.89215	0.899241	9.27527	0.981633	10.0766	0.647822	6.65958	0.832898	8.56843	0.993443	10.2549
0.408699	4.15133	0.206816	2.10728	0.76926	7.87013	0.904931	9.24511	0.989434	10.0604	0.650671	6.62541	0.838797	8.5472	0.998236	10.2062
0.409906	4.12455	0.2089	2.1085	0.77441	7.84801	0.910623	9.21554	0.997264	10.0449	0.653468	6.59135	0.844691	8.52631	1.00305	10.1587
0.411113	4.09828	0.210984	2.1097	0.779509	7.8258	0.916317	9.18655	1.00512	10.0299	0.656214	6.55744	0.850577	8.50573		
0.412321	4.0725	0.213069	2.11087	0.784558	7.80349	0.922015	9.15813			0.658912	6.52366	0.856454	8.48544		
0.413531	4.0472	0.215153	2.11202	0.789554	7.78108	0.927717	9.13027			0.661563	6.49004	0.86232	8.46542		
0.414742	4.02238	0.217237	2.11315	0.794499	7.75858	0.933423	9.10296			0.664168	6.45657	0.868175	8.44564		
0.415954	3.99801	0.219321	2.11426	0.799393	7.73598	0.939135	9.0762			0.666727	6.42328	0.874017	8.4261		
0.417168	3.97409	0.221405	2.11535	0.804234	7.71328	0.944852	9.04996			0.669244	6.39016	0.879844	8.40677		
0.418384	3.95061	0.223488	2.11642	0.809023	7.6905	0.950574	9.02424			0.671717	6.35723	0.885656	8.38764		
0.419603	3.92756	0.225572	2.11747	0.813761	7.66762	0.956302	8.99902			0.67415	6.32449	0.891451	8.36868		
0.420823	3.90493	0.227656	2.1185	0.818446	7.64465	0.962035	8.97429			0.676543	6.29194	0.897228	8.34988		
0.422046	3.88271	0.229739	2.11951	0.823079	7.6216	0.967774	8.95003			0.678897	6.2596	0.902986	8.33123		
0.423271	3.86089	0.231822	2.12051	0.827661	7.59847	0.973518	8.92624			0.681214	6.22746	0.908724	8.31271		
0.424499	3.83946	0.233906	2.12149	0.832191	7.57526	0.979267	8.9029			0.683494	6.19554	0.91444	8.29431		
0.425729	3.81841	0.235989	2.12245	0.836669	7.55198	0.98502	8.87999			0.685739	6.16383	0.920134	8.27602		
0.426963	3.79774	0.238072	2.12339	0.841096	7.52863	0.990778	8.8575			0.68795	6.13235	0.925805	8.25782		
0.428199	3.77743	0.240156	2.12432	0.845472	7.5052	0.996539	8.83541			0.690127	6.10109	0.931451	8.23971		
0.429439	3.75748	0.242239	2.12523	0.849797	7.48172	1.0023	8.81371			0.692273	6.07005	0.937072	8.22167		
0.430682	3.73789	0.244322	2.12613	0.854071	7.45818					0.694387	6.03925	0.942667	8.2037		
0.431928	3.71863	0.246405	2.12701	0.858296	7.43458					0.696471	6.00869	0.948235	8.18578		
0.433177	3.69971	0.248488	2.12787	0.862471	7.41093					0.698525	5.97836	0.953774	8.1679		
0.43443	3.68112	0.250571	2.12873	0.866596	7.38724					0.700551	5.94827	0.959285	8.15007		
0.435686	3.66284	0.252654	2.12956	0.870673	7.36351					0.70255	5.91842	0.964767	8.13227		
0.436946	3.64488	0.254736	2.13039	0.874701	7.33974					0.704522	5.88881	0.970218	8.11449		
0.438209	3.62723	0.256819	2.1312	0.878681	7.31594					0.706468	5.85944	0.975639	8.09673		
0.439476	3.60988	0.258902	2.132	0.882614	7.29212					0.708389	5.83033	0.981027	8.07899		
0.440747	3.59282	0.260984	2.13279	0.886499	7.26827					0.710286	5.80145	0.986384	8.06125		
0.442021	3.57605	0.263067	2.13356	0.890338	7.24441					0.71216	5.77282	0.991708	8.04351		
0.4433	3.55956	0.265149	2.13432	0.894131	7.22053					0.714011	5.74445	0.996998	8.02577		
0.444582	3.54335	0.267232	2.13508	0.897878	7.19664					0.71584	5.71631	1.00225	8.00803		
0.445868	3.5274	0.269314	2.13581	0.90158	7.17275					0.717648	5.68843				
0.447157	3.51172	0.271397	2.13654	0.905238	7.14886					0.719435	5.66079				
0.448451	3.4963	0.273479	2.13726	0.908851	7.12498					0.721203	5.6334				
0.449749	3.48113	0.275561	2.13797	0.912422	7.1011					0.722951	5.60626				
0.451051	3.46621	0.277644	2.13866	0.915949	7.07724					0.724681	5.57936				
0.452357	3.45154	0.279726	2.13935	0.919434	7.05339					0.726393	5.55271				
0.453666	3.4371	0.281808	2.14002	0.922878	7.02956					0.728088	5.52631				
0.45498	3.42289	0.28389	2.14069	0.92628	7.00576					0.729766	5.50015				
0.456298	3.40891	0.285972	2.14134	0.929642	6.98198					0.731428	5.47423				
0.45762	3.39515	0.288054	2.14199	0.932963	6.95824					0.733074	5.44856				
0.458946	3.38162	0.290136	2.14263	0.936246	6.93453					0.734705	5.42313				
0.460276	3.3683	0.292218	2.14326	0.939489	6.91086					0.736321	5.39794				
0.461611	3.35518	0.2943	2.14388	0.942694	6.88724					0.737923	5.37298				
0.462949	3.34228	0.296382	2.14449	0.945861	6.86365					0.739512	5.34827				
0.464292	3.32957	0.298464	2.14509	0.94899	6.84012					0.741088	5.32379				
0.465638	3.31707	0.300546	2.14569	0.952084	6.81664					0.742651	5.29955				
0.466989	3.30476	0.302628	2.14627	0.955141	6.79321					0.744201	5.27554				
0.468344	3.29263	0.30471	2.14685	0.958162	6.76984					0.74574	5.25176				
0.469703	3.2807	0.306791	2.14742	0.961149	6.74653					0.747267	5.22821				
0.471066	3.26895	0.308873	2.14798	0.964101	6.72328					0.748784	5.20489				
0.472433	3.25737	0.310955	2.14854	0.967019	6.7001					0.750289	5.1818				
0.473804	3.24598	0.313036	2.14909	0.969903	6.67698					0.751785	5.15893				
0.47518	3.23475	0.315118	2.14963	0.972755	6.65394					0.753271	5.13629				
