Sym0		Asym0		Sym1		Sym2		Sym3		Asym1		Asym2		Asym3	
468  Points		494  Points		192  Points		138  Points		120  Points		357  Points		152  Points		121  Points	
Freq (MHz)	Vgr (m/ms)	Freq (MHz)	Vgr (m/ms)	Freq (MHz)	Vgr (m/ms)	Freq (MHz)	Vgr (m/ms)	Freq (MHz)	Vgr (m/ms)	Freq (MHz)	Vgr (m/ms)	Freq (MHz)	Vgr (m/ms)	Freq (MHz)	Vgr (m/ms)
0.00282092	7.63239	7.03416e-006	0.158588	0.279535	0.163314	0.456709	0.0742217	0.559018	0.0588822	0.139891	0.545452	0.419288	0.129993	0.698775	0.0528518
0.00993198	7.63116	0.00015479	0.260356	0.279687	0.236073	0.456778	0.109162	0.559073	0.102836	0.1404	0.743851	0.419409	0.183981	0.698824	0.084137
0.0170407	7.62783	0.000492179	0.460999	0.279974	0.381256	0.456912	0.179119	0.55921	0.190605	0.141278	1.1361	0.41963	0.29182	0.698932	0.146718
0.0241456	7.62279	0.00101381	0.654569	0.280397	0.525576	0.457112	0.249379	0.559428	0.278252	0.142517	1.51738	0.419953	0.399392	0.699097	0.209258
0.031245	7.61601	0.0017119	0.838608	0.280954	0.668758	0.457377	0.320174	0.559728	0.365802	0.144105	1.8846	0.420375	0.506649	0.699321	0.271716
0.0383372	7.60735	0.00257646	1.01106	0.281643	0.810468	0.457708	0.39167	0.56011	0.453084	0.146028	2.23554	0.420897	0.613424	0.699604	0.334084
0.0454204	7.59684	0.00359589	1.17058	0.282464	0.95048	0.458107	0.463983	0.560573	0.540052	0.148271	2.5685	0.421518	0.719602	0.699944	0.396343
0.0524931	7.58447	0.00475771	1.31633	0.283414	1.08849	0.458573	0.537199	0.561116	0.626683	0.150815	2.88227	0.422238	0.825171	0.700342	0.45846
0.0595533	7.57013	0.00604873	1.44802	0.284492	1.22424	0.459108	0.611487	0.56174	0.713006	0.153642	3.17641	0.423055	0.930034	0.700798	0.520437
0.0665992	7.55374	0.00745595	1.5658	0.285696	1.35762	0.459712	0.68704	0.562445	0.798859	0.156733	3.45093	0.423971	1.03407	0.701312	0.582209
0.0736288	7.53525	0.00896643	1.67018	0.287022	1.4883	0.460388	0.763953	0.563229	0.884214	0.160072	3.70618	0.424982	1.13719	0.701883	0.643789
0.0806403	7.51461	0.0105681	1.76198	0.288469	1.61612	0.461136	0.842266	0.564092	0.969085	0.163639	3.94276	0.42609	1.23935	0.702512	0.705207
0.0876315	7.49163	0.0122497	1.84207	0.290034	1.74103	0.461957	0.922207	0.565035	1.05335	0.167419	4.16148	0.427292	1.34048	0.703197	0.766373
0.0946001	7.46625	0.0140006	1.91152	0.291713	1.8629	0.462854	1.00387	0.566055	1.13707	0.171394	4.36337	0.428587	1.44041	0.70394	0.827255
0.101544	7.43835	0.0158116	1.97138	0.293505	1.98162	0.463828	1.08728	0.567153	1.22013	0.17555	4.5494	0.429976	1.53921	0.704739	0.88786
0.108461	7.40774	0.0176741	2.02269	0.295406	2.09718	0.46488	1.17258	0.568329	1.30247	0.179871	4.72056	0.431456	1.63675	0.705594	0.948208
0.115348	7.37435	0.0195806	2.06642	0.297413	2.20957	0.466013	1.25992	0.56958	1.38416	0.184346	4.87794	0.433026	1.73295	0.706506	1.00826
0.122202	7.33797	0.0215246	2.1035	0.299523	2.31884	0.467228	1.34933	0.570908	1.46514	0.188961	5.02256	0.434685	1.82779	0.707473	1.06793
0.129021	7.29839	0.0235003	2.13488	0.301734	2.42511	0.468527	1.44086	0.572311	1.54529	0.193705	5.15529	0.436431	1.92122	0.708496	1.1273
0.135802	7.25542	0.0255027	2.16124	0.304042	2.52845	0.469913	1.53455	0.573787	1.62465	0.198567	5.27703	0.438265	2.01318	0.709573	1.18634
0.142541	7.20887	0.0275275	2.18334	0.306445	2.62907	0.471387	1.63045	0.575338	1.70326	0.203538	5.38869	0.440183	2.10364	0.710706	1.24495
0.149235	7.15855	0.0293073	2.19963	0.308941	2.72718	0.472951	1.72866	0.576961	1.781	0.208608	5.49101	0.442185	2.19256	0.711893	1.30321
0.15588	7.10412	0.0308341	2.21149	0.311527	2.82299	0.474608	1.82906	0.578657	1.8579	0.21377	5.58476	0.444268	2.27987	0.713135	1.36106
0.162472	7.04537	0.0321024	2.22016	0.314201	2.91682	0.476359	1.9317	0.580423	1.93398	0.218336	5.66006	0.446433	2.36566	0.714429	1.41845
0.169008	6.98205	0.0331086	2.22633	0.316962	3.00899	0.478207	2.03657	0.58226	2.00916	0.222275	5.71973	0.448677	2.44978	0.715778	1.47546
0.175483	6.9138	0.0338501	2.23035	0.319808	3.09988	0.480154	2.14356	0.584167	2.08343	0.225562	5.76607	0.450998	2.53225	0.717179	1.53204
0.181891	6.84036	0.0343254	2.23285	0.322738	3.18994	0.482202	2.25264	0.586143	2.15683	0.228179	5.80089	0.453395	2.61312	0.718632	1.58816
0.188229	6.76151	0.0350095	2.2362	0.325752	3.27954	0.484352	2.36374	0.588186	2.22935	0.230114	5.82549	0.455867	2.6923	0.720138	1.64378
0.194491	6.67691	0.0357541	2.2395	0.328849	3.3691	0.486606	2.47672	0.590297	2.30101	0.231356	5.84076	0.458412	2.76981	0.721696	1.69892
0.200671	6.58624	0.0367686	2.2438	0.33203	3.45915	0.488967	2.59144	0.592474	2.37174	0.233147	5.86208	0.461028	2.84565	0.723304	1.75361
0.206763	6.48933	0.0380542	2.24851	0.335295	3.55011	0.491435	2.70771	0.594716	2.44156	0.235102	5.88451	0.463714	2.91985	0.724963	1.80783
0.212763	6.38597	0.0396123	2.25339	0.338645	3.64239	0.494012	2.82541	0.597023	2.51054	0.237771	5.91375	0.466469	2.99245	0.726673	1.86148
0.218663	6.27594	0.041444	2.25815	0.342082	3.73643	0.4967	2.94435	0.599394	2.57862	0.241166	5.94879	0.469291	3.06336	0.728432	1.91466
0.224457	6.15921	0.0435502	2.26255	0.345608	3.83257	0.499499	3.06432	0.601828	2.64586	0.245298	5.98848	0.472177	3.13268	0.73024	1.96733
0.23014	6.03576	0.04566	2.26592	0.349224	3.93112	0.50241	3.18509	0.604325	2.71222	0.250178	6.03129	0.475128	3.20043	0.732098	2.01944
0.235704	5.90562	0.0477725	2.26845	0.352933	4.03218	0.505434	3.30636	0.606882	2.7777	0.255819	6.07595	0.478141	3.26657	0.734003	2.07105
0.241144	5.76904	0.049887	2.2703	0.356738	4.13588	0.508571	3.42798	0.609501	2.84239	0.2615	6.11608	0.481215	3.33116	0.735957	2.12213
0.246454	5.62639	0.0520029	2.27152	0.36064	4.24212	0.511822	3.54964	0.612179	2.90628	0.267216	6.15182	0.484348	3.39429	0.737958	2.17266
0.251628	5.47806	0.0541197	2.27228	0.364122	4.33665	0.515185	3.67109	0.614916	2.96939	0.272963	6.18345	0.48754	3.45594	0.740005	2.22267
0.256662	5.32466	0.0562371	2.27266	0.367152	4.4186	0.518662	3.79212	0.617712	3.03175	0.278738	6.21121	0.490788	3.5161	0.742099	2.27216
0.26155	5.16699	0.0583546	2.2727	0.3697	4.48708	0.522252	3.91236	0.620565	3.09333	0.284537	6.23523	0.494092	3.57491	0.744239	2.32102
0.26629	5.00589	0.060472	2.27246	0.371743	4.5417	0.525953	4.03164	0.623476	3.15424	0.290357	6.25574	0.497449	3.63239	0.746424	2.36939
0.270878	4.84225	0.062589	2.27202	0.373261	4.5821	0.529764	4.14971	0.626443	3.21446	0.296194	6.27292	0.50086	3.68854	0.748654	2.41727
0.275313	4.67714	0.0647056	2.27143	0.374239	4.60804	0.533685	4.26631	0.629466	3.27403	0.302046	6.28685	0.504323	3.74342	0.750929	2.46455
0.279594	4.51165	0.0668216	2.27065	0.375656	4.64537	0.537714	4.38116	0.632544	3.33303	0.307909	6.29774	0.507836	3.79715	0.753247	2.51128
0.28372	4.34685	0.0689368	2.26983	0.377208	4.68604	0.541849	4.49411	0.635677	3.39143	0.313781	6.30567	0.511398	3.84976	0.755608	2.55751
0.287694	4.1838	0.0710512	2.26894	0.379341	4.74148	0.546088	4.60495	0.638863	3.44934	0.319659	6.3107	0.515009	3.90121	0.758012	2.60322
0.291516	4.02344	0.0731647	2.26798	0.382075	4.81148	0.55043	4.7134	0.642104	3.50677	0.32554	6.31296	0.518668	3.95166	0.760459	2.64836
0.295191	3.86665	0.0752773	2.26699	0.385435	4.89592	0.554871	4.81934	0.645398	3.56379	0.331422	6.31255	0.522373	4.00115	0.762947	2.69294
0.298721	3.71427	0.077389	2.26595	0.38945	4.99418	0.55941	4.92259	0.648745	3.62047	0.337303	6.30952	0.526123	4.04975	0.765477	2.73705
0.302112	3.56698	0.0794997	2.26495	0.394155	5.10526	0.564044	5.02298	0.652144	3.67684	0.343179	6.30387	0.529919	4.0975	0.768048	2.78067
0.305368	3.42525	0.0816095	2.26394	0.398963	5.21387	0.56877	5.1204	0.655596	3.73298	0.349049	6.2957	0.533759	4.14444	0.770659	2.82374
0.308494	3.28946	0.0837183	2.26288	0.40387	5.31918	0.573585	5.21467	0.6591	3.789	0.354911	6.2851	0.537642	4.19071	0.773309	2.86631
0.311497	3.15989	0.0858261	2.26184	0.408875	5.42047	0.578487	5.30567	0.662656	3.84494	0.360761	6.27203	0.541568	4.23631	0.776	2.90838
0.314383	3.03676	0.087933	2.26088	0.413971	5.51715	0.583472	5.39332	0.666265	3.90086	0.366598	6.25652	0.545536	4.28129	0.778729	2.94996
0.317156	2.92006	0.090039	2.25993	0.419155	5.60878	0.588537	5.47744	0.669925	3.95689	0.372419	6.23866	0.549545	4.32576	0.781497	2.99108
0.319824	2.80979	0.0921441	2.25897	0.424422	5.69491	0.593678	5.55793	0.673638	4.01315	0.378223	6.21849	0.553073	4.36417	0.784302	3.03171
0.322392	2.70586	0.0942483	2.25806	0.429767	5.77529	0.598893	5.63476	0.677403	4.0697	0.384007	6.19592	0.556105	4.39669	0.787146	3.0719
0.324866	2.60806	0.0963517	2.25716	0.435184	5.84976	0.604178	5.70779	0.681221	4.1267	0.389768	6.17101	0.558629	4.42335	0.790026	3.11162
0.327252	2.51626	0.0984543	2.25631	0.440667	5.9182	0.609529	5.77686	0.685093	4.18424	0.395506	6.14379	0.560635	4.44435	0.792944	3.15085
0.329555	2.43022	0.100556	2.25544	0.446212	5.98072	0.614943	5.84192	0.689018	4.24247	0.401217	6.11429	0.562117	4.45964	0.795898	3.1897
0.33178	2.34961	0.102657	2.25464	0.451812	6.03736	0.620415	5.90288	0.692998	4.30159	0.406899	6.08252	0.563068	4.46946	0.798888	3.22813
0.333933	2.27423	0.104757	2.25391	0.457462	6.08824	0.625942	5.95963	0.697034	4.36167	0.412551	6.04846	0.564438	4.48364	0.801913	3.26609
0.336018	2.20382	0.106857	2.25315	0.463157	6.1336	0.63152	6.0121	0.701126	4.42295	0.41817	6.01214	0.565932	4.49896	0.804974	3.30365
0.338039	2.13807	0.108956	2.2524	0.468891	6.17368	0.636419	6.0543	0.705276	4.48553	0.423754	5.97354	0.567973	4.51978	0.808069	3.34081
0.340002	2.07673	0.111054	2.25173	0.474661	6.2087	0.640621	6.0875	0.709484	4.54959	0.429301	5.93274	0.570567	4.54587	0.811199	3.37758
0.341909	2.01954	0.113152	2.25106	0.48046	6.23887	0.644113	6.11305	0.713753	4.6154	0.434809	5.88975	0.573725	4.57737	0.814363	3.41397
0.343765	1.96624	0.115249	2.25044	0.486286	6.26455	0.646884	6.13194	0.718084	4.68313	0.440276	5.84456	0.577456	4.61427	0.81756	3.44998
0.345573	1.91663	0.117345	2.24983	0.492134	6.28595	0.648926	6.14516	0.72248	4.75299	0.445699	5.79725	0.581775	4.65641	0.820791	3.48561
0.347337	1.87043	0.119441	2.24924	0.497999	6.30332	0.650236	6.15324	0.726941	4.82508	0.451078	5.74788	0.586133	4.69838	0.824055	3.52091
0.349058	1.8274	0.121536	2.24865	0.503879	6.31695	0.652121	6.16436	0.731471	4.8997	0.45641	5.69643	0.59053	4.74029	0.827352	3.55584
0.350742	1.7874	0.123631	2.2481	0.50977	6.3271	0.654174	6.17585	0.736071	4.97701	0.461693	5.64294	0.594966	4.78204	0.830681	3.59039
0.352389	1.75019	0.125725	2.24764	0.515669	6.33393	0.656973	6.19041	0.740745	5.05706	0.466925	5.58756	0.59944	4.82368	0.834043	3.62463
0.354003	1.7156	0.127819	2.24712	0.521573	6.33767	0.660521	6.20714	0.745494	5.13997	0.472105	5.53028	0.603954	4.86522	0.837435	3.65855
0.355586	1.68348	0.129913	2.24663	0.527479	6.33856	0.664823	6.22472	0.749697	5.21465	0.47723	5.47125	0.608506	4.90665	0.84086	3.69209
0.35714	1.65367	0.132006	2.24617	0.533384	6.33673	0.669885	6.24174	0.753329	5.28015	0.4823	5.41053	0.613097	4.94787	0.844315	3.72535
0.358667	1.62598	0.134098	2.24572	0.539286	6.33241	0.675708	6.25647	0.756367	5.33548	0.487312	5.34816	0.617726	4.98888	0.847802	3.75825
0.36017	1.60027	0.13619	2.24532	0.545184	6.32571	0.681543	6.26599	0.758791	5.38008	0.492265	5.28431	0.622393	5.02971	0.851318	3.79086
0.361649	1.57645	0.138282	2.24493	0.551074	6.31679	0.687384	6.27014	0.760587	5.41344	0.497159	5.21906	0.627098	5.07019	0.854865	3.8232
0.363107	1.55438	0.140374	2.24455	0.556954	6.30577	0.693227	6.26887	0.761742	5.43492	0.501991	5.15256	0.631841	5.11036	0.858442	3.85515
0.364546	1.53397	0.142465	2.24414	0.562824	6.29276	0.699066	6.26235	0.763411	5.46606	0.50676	5.08489	0.636621	5.15014	0.862049	3.88682
0.365966	1.51505	0.144555	2.24379	0.56868	6.27794	0.704896	6.25062	0.765235	5.50029	0.511466	5.01619	0.641438	5.18944	0.865685	3.91822
0.367189	1.49973	0.146646	2.24344	0.574522	6.26134	0.710713	6.23388	0.767735	5.54734	0.516107	4.94665	0.646291	5.22817	0.86935	3.9493
0.368223	1.48746	0.148736	2.24311	0.580347	6.24304	0.716512	6.21248	0.770927	5.60779	0.520683	4.87635	0.65118	5.26625	0.873044	3.98012
0.369072	1.47785	0.150825	2.2428	0.586155	6.22316	0.722289	6.18672	0.774833	5.68203	0.525194	4.80539	0.656104	5.30367	0.876287	4.00666
0.369739	1.47063	0.152915	2.24246	0.591944	6.20172	0.72804	6.15707	0.779482	5.77059	0.529638	4.73398	0.661063	5.34029	0.879067	4.02914
0.370227	1.46547	0.155004	2.24218	0.597711	6.17888	0.733762	6.12401	0.784907	5.87372	0.534015	4.66228	0.666055	5.376	0.881379	4.04765
0.370539	1.46222	0.157093	2.24193	0.603457	6.15468	0.739452	6.08822	0.790427	5.97794	0.538325	4.59036	0.67108	5.41077	0.883214	4.06215
0.370986	1.45776	0.159182	2.24163	0.60918	6.12907	0.745107	6.05033	0.796046	6.08283	0.542568	4.51836	0.676137	5.44452	0.884567	4.07282
0.37147	1.45306	0.16127	2.24136	0.614878	6.1022	0.750726	6.01098	0.801762	6.18771	0.546745	4.44644	0.681225	5.47719	0.885435	4.07968
0.372126	1.44685	0.163358	2.24112	0.620551	6.07411	0.756308	5.97091	0.807576	6.29193	0.550854	4.3747	0.686344	5.50864	0.886686	4.08933
0.372952	1.43936	0.165446	2.24085	0.626197	6.0448	0.761852	5.93077	0.813486	6.39491	0.554896	4.30327	0.69149	5.5388	0.888048	4.09977
0.373945	1.43076	0.167534	2.24065	0.631815	6.01436	0.767359	5.89118	0.819492	6.49606	0.558873	4.23229	0.696664	5.56768	0.889907	4.11412
0.375103	1.42143	0.169621	2.24043	0.637404	5.98277	0.77283	5.85268	0.825591	6.59483	0.562783	4.16183	0.701865	5.59523	0.892266	4.13205
0.376422	1.41156	0.171709	2.24018	0.642963	5.95013	0.778265	5.81581	0.831781	6.69068	0.566628	4.09199	0.707091	5.62135	0.895134	4.15363
0.377733	1.40252	0.173796	2.23994	0.648491	5.91649	0.783667	5.78097	0.838058	6.78329	0.570408	4.02286	0.71234	5.64595	0.898516	4.17872
0.379036	1.3943	0.175882	2.23975	0.653988	5.88176	0.789037	5.74846	0.844421	6.87229	0.574124	3.95454	0.717611	5.66905	0.902423	4.20723
0.380331	1.3869	0.177969	2.23958	0.659451	5.84609	0.794378	5.71854	0.850864	6.95748	0.577777	3.88708	0.722903	5.69067	0.906356	4.23543
0.38162	1.38016	0.180056	2.23939	0.664881	5.8095	0.799693	5.69136	0.857385	7.03871	0.581367	3.82058	0.728215	5.71071	0.910315	4.26338
0.382903	1.37411	0.182142	2.23918	0.670276	5.77198	0.804984	5.66692	0.86398	7.11591	0.584896	3.75507	0.733545	5.72915	0.9143	4.29105
0.384181	1.36875	0.184228	2.23901	0.675637	5.73359	0.810253	5.64533	0.870645	7.189	0.588364	3.6906	0.738891	5.74599	0.918311	4.3184
0.385454	1.36394	0.186314	2.23884	0.68096	5.69433	0.815503	5.62651	0.877376	7.25803	0.591773	3.62723	0.744252	5.76125	0.922347	4.34548
0.386722	1.3597	0.1884	2.23869	0.686247	5.6543	0.820737	5.6104	0.884169	7.3232	0.595123	3.56501	0.749626	5.77489	0.926408	4.37227
0.387987	1.35601	0.190486	2.2385	0.691497	5.61348	0.825957	5.59686	0.891022	7.38453	0.598416	3.50394	0.755013	5.78691	0.930495	4.39882
0.389249	1.35281	0.192571	2.23834	0.696707	5.57187	0.831166	5.58572	0.89793	7.44212	0.601652	3.44404	0.760409	5.79739	0.934605	4.42505
0.390508	1.35011	0.194657	2.23822	0.701879	5.52964	0.836366	5.57694	0.90489	7.49614	0.604833	3.38534	0.765815	5.80629	0.93874	4.45099
0.391765	1.34781	0.196742	2.23805	0.707011	5.48674	0.841558	5.57023	0.911898	7.54681	0.607961	3.3279	0.771229	5.81356	0.942899	4.4767
0.39302	1.34593	0.198827	2.23793	0.712103	5.44317	0.846745	5.56546	0.918952	7.59426	0.611035	3.27168	0.776648	5.81929	0.947082	4.50212
0.394273	1.34447	0.200912	2.23779	0.717154	5.39901	0.851929	5.56248	0.926049	7.6386	0.614057	3.21669	0.782072	5.8235	0.951288	4.52728
0.395525	1.34334	0.202997	2.23761	0.722163	5.35433	0.85711	5.56114	0.933186	7.68004	0.617029	3.16294	0.7875	5.82616	0.955518	4.55216
0.396776	1.3426	0.205082	2.23749	0.727131	5.30918	0.862291	5.56116	0.94036	7.7187	0.619951	3.11043	0.792929	5.82738	0.959771	4.57676
0.398027	1.34218	0.207166	2.23739	0.732057	5.26353	0.867473	5.5625	0.947569	7.75469	0.622825	3.05919	0.798358	5.82711	0.964046	4.60115
0.399277	1.34205	0.209251	2.23727	0.736939	5.21745	0.872657	5.56499	0.95481	7.78818	0.625651	3.00915	0.803787	5.8254	0.968344	4.62524
0.400527	1.34221	0.211335	2.23713	0.741779	5.17101	0.877843	5.56844	0.962081	7.81928	0.628432	2.96029	0.809213	5.82227	0.972665	4.64908
0.401778	1.34261	0.213419	2.23703	0.746575	5.12428	0.883033	5.57269	0.96938	7.84805	0.631167	2.91268	0.814636	5.81774	0.977008	4.67272
0.403029	1.34333	0.215503	2.2369	0.751327	5.07722	0.888227	5.57767	0.976705	7.87459	0.633859	2.86628	0.820054	5.81189	0.981372	4.69607
0.404281	1.34431	0.217588	2.23677	0.756036	5.02989	0.893426	5.58327	0.984054	7.89893	0.636508	2.821	0.825466	5.80472	0.985758	4.71918
0.405534	1.34546	0.219671	2.2367	0.7607	4.98238	0.898631	5.5893	0.991424	7.92113	0.639116	2.77693	0.830871	5.79626	0.990166	4.74208
0.406788	1.3468	0.221755	2.23659	0.76532	4.93475	0.903841	5.59564	0.998814	7.94127	0.641683	2.73402	0.836267	5.7865	0.994595	4.7647
0.408044	1.34839	0.223839	2.23647	0.769895	4.88698	0.909058	5.60229	1.00622	7.95082	0.64421	2.69221	0.841653	5.77554	0.999044	4.78711
0.409301	1.35017	0.225923	2.2364	0.774426	4.83912	0.91428	5.6091			0.6467	2.65153	0.847029	5.76336	1.00351	4.79829
0.41056	1.35213	0.228006	2.2363	0.778912	4.79123	0.91951	5.61591			0.649151	2.61192	0.852393	5.74998		
0.41182	1.35424	0.23009	2.23617	0.783354	4.74334	0.924745	5.62275			0.651567	2.57337	0.857743	5.73553		
0.413083	1.3565	0.232173	2.23611	0.787751	4.69551	0.929987	5.62951			0.653946	2.53589	0.86308	5.71995		
0.414348	1.35892	0.234257	2.23604	0.792104	4.64776	0.935235	5.63607			0.656292	2.49947	0.868402	5.70327		
0.415615	1.36148	0.23634	2.23593	0.796412	4.60012	0.940489	5.64243			0.658604	2.46401	0.873707	5.68555		
0.416885	1.36419	0.238423	2.23584	0.800675	4.55264	0.945749	5.64846			0.660883	2.42954	0.878996	5.66684		
0.418157	1.36701	0.240506	2.23576	0.804895	4.50535	0.951014	5.65416			0.663131	2.39605	0.884267	5.64716		
0.419432	1.36992	0.242589	2.23568	0.809071	4.45824	0.956285	5.65945			0.665348	2.36352	0.889519	5.62648		
0.42071	1.37295	0.244672	2.23561	0.813202	4.41139	0.96156	5.66434			0.667535	2.33194	0.894751	5.60489		
0.421991	1.37607	0.246755	2.23553	0.817291	4.36482	0.96684	5.66872			0.669693	2.30122	0.899963	5.58245		
0.423274	1.37929	0.248838	2.23542	0.821336	4.3185	0.972123	5.67252			0.671823	2.27135	0.905154	5.55915		
0.424561	1.38261	0.25092	2.23537	0.825338	4.27252	0.97741	5.67582			0.673926	2.24239	0.910322	5.53505		
0.425851	1.38603	0.253003	2.23534	0.829297	4.22687	0.982699	5.67853			0.676002	2.21425	0.915468	5.51011		
0.427144	1.3895	0.255086	2.23525	0.833214	4.18159	0.987991	5.68061			0.678052	2.18696	0.920589	5.48445		
0.42844	1.39307	0.257168	2.23517	0.837089	4.13669	0.993285	5.68206			0.680077	2.16046	0.925687	5.45807		
0.429739	1.39668	0.259251	2.2351	0.840922	4.09215	0.998579	5.68282			0.682078	2.13473	0.93076	5.43097		
0.431042	1.40032	0.261333	2.23502	0.844714	4.04802	1.00387	5.68302			0.684055	2.10977	0.935807	5.40321		
0.432349	1.40408	0.263415	2.23498	0.848465	4.00435					0.686009	2.08558	0.940828	5.37486		
0.433659	1.40786	0.265498	2.23493	0.852176	3.96109					0.687941	2.06209	0.945823	5.34593		
0.434972	1.41166	0.26758	2.23487	0.855847	3.9183					0.689851	2.03929	0.95079	5.31638		
0.436289	1.41553	0.269662	2.2348	0.859477	3.87595					0.691741	2.01716	0.955729	5.28637		
0.43761	1.41949	0.271744	2.23473	0.863069	3.83401					0.69361	1.99573	0.96064	5.25583		
0.438934	1.42344	0.273826	2.23469	0.866622	3.79257					0.69546	1.97498	0.965523	5.22482		
0.440262	1.42743	0.275908	2.23464	0.870136	3.75164					0.69729	1.95482	0.970376	5.19342		
0.441594	1.43148	0.27799	2.23457	0.873612	3.71118					0.699102	1.9353	0.9752	5.16161		
0.44293	1.43548	0.280072	2.23454	0.877051	3.67121					0.700897	1.91638	0.979994	5.1294		
0.444269	1.43957	0.282154	2.23449	0.880453	3.6317					0.702673	1.89802	0.984758	5.0969		
0.445612	1.4437	0.284236	2.23442	0.883819	3.59265					0.704433	1.88024	0.989492	5.06409		
0.446959	1.44778	0.286318	2.23436	0.887148	3.55416					0.706177	1.86307	0.994195	5.03099		
0.44831	1.45194	0.288399	2.23432	0.890441	3.51616					0.707905	1.84639	0.998867	4.99763		
0.449665	1.45611	0.290481	2.23431	0.8937	3.47863					0.709618	1.83022	1.00351	4.98087		
0.451023	1.46025	0.292563	2.23422	0.896923	3.44159					0.711315	1.81459				
0.452386	1.46444	0.294644	2.23418	0.900113	3.40505					0.712999	1.79945				
0.453752	1.46862	0.296726	2.23413	0.903268	3.36902					0.714668	1.78481				
