Sym0		Asym0		Sym1		Sym2		Sym3		Sym4		Asym1		Asym2		Asym3	
460  Points		494  Points		198  Points		166  Points		153  Points		109  Points		309  Points		178  Points		144  Points	
Freq (MHz)	Vph (m/ms)	Freq (MHz)	Vph (m/ms)	Freq (MHz)	Vph (m/ms)	Freq (MHz)	Vph (m/ms)	Freq (MHz)	Vph (m/ms)	Freq (MHz)	Vph (m/ms)	Freq (MHz)	Vph (m/ms)	Freq (MHz)	Vph (m/ms)	Freq (MHz)	Vph (m/ms)
0.00370848	6.14323	0.000434031	0.196195	0.27954	366.206	0.499376	945.683	0.55903	885.453	0.838526	6093.4	0.139772	406.603	0.419283	581.154	0.69878	1147.17
0.00943183	6.14305	0.000872191	0.27742	0.279664	164.99	0.499402	342.114	0.559099	357.699	0.838548	784.197	0.139992	109.759	0.41937	253.678	0.698826	453.538
0.0151545	6.14275	0.00145579	0.357194	0.279881	106.551	0.499451	208.849	0.559227	224.163	0.838604	419.092	0.140465	63.6411	0.419525	162.301	0.698911	282.671
0.0208761	6.14228	0.00217906	0.435173	0.280192	78.7405	0.499525	150.317	0.559413	163.264	0.838695	285.981	0.141187	44.9807	0.419748	119.364	0.699037	205.344
0.0265961	6.14164	0.00303521	0.511062	0.280596	62.4919	0.499623	117.425	0.559658	128.417	0.838819	217.064	0.142153	34.9224	0.420039	94.4281	0.699202	161.258
0.0323141	6.14086	0.00401656	0.584591	0.281093	51.8448	0.499746	96.3545	0.55996	105.856	0.838977	174.93	0.143355	28.6583	0.420398	78.1418	0.699407	132.775
0.0380297	6.13993	0.00511497	0.655563	0.281681	44.3347	0.499893	81.7055	0.560321	90.0617	0.83917	146.509	0.144787	24.3999	0.420824	66.6744	0.699652	112.86
0.0437424	6.13882	0.00632195	0.723822	0.28236	38.7581	0.500066	70.9321	0.560739	78.3898	0.839397	126.045	0.146439	21.3293	0.421318	58.1663	0.699936	98.1539
0.0494519	6.13758	0.00762894	0.789271	0.28313	34.457	0.500264	62.677	0.561215	69.4151	0.839657	110.61	0.148301	19.0195	0.421879	51.6058	0.70026	86.8518
0.0551574	6.13616	0.00902734	0.851837	0.283989	31.0418	0.500488	56.1506	0.561747	62.3014	0.839952	98.5527	0.150364	17.2258	0.422506	46.395	0.700623	77.8955
0.0608588	6.13458	0.0105089	0.911506	0.284936	28.2667	0.500739	50.8622	0.562337	56.5259	0.84028	88.8757	0.152617	15.7977	0.4232	42.158	0.701026	70.6246
0.0665555	6.13284	0.0120659	0.968299	0.28597	25.969	0.501017	46.4907	0.562982	51.7447	0.840643	80.938	0.155049	14.6378	0.42396	38.6468	0.701468	64.6051
0.0722469	6.13093	0.0136906	1.02226	0.28709	24.037	0.501322	42.8173	0.563684	47.7225	0.841039	74.3102	0.157651	13.6801	0.424785	35.6908	0.701949	59.5403
0.0779325	6.12884	0.0153762	1.07343	0.288295	22.3912	0.501656	39.6877	0.56444	44.2928	0.841469	68.6933	0.160412	12.8785	0.425676	33.1691	0.702469	55.2205
0.0836119	6.12658	0.0171161	1.12193	0.289582	20.9735	0.502018	36.9898	0.565252	41.3345	0.841933	63.8731	0.163322	12.1996	0.426631	30.9935	0.703029	51.4931
0.0892844	6.12414	0.0189042	1.16782	0.290951	19.7405	0.50241	34.6407	0.566118	38.7573	0.84243	59.6916	0.166372	11.6188	0.427651	29.098	0.703627	48.2447
0.0949495	6.12151	0.0207353	1.21122	0.292401	18.6593	0.502833	32.5771	0.567039	36.4926	0.842961	56.0303	0.169138	11.1782	0.428734	27.4327	0.704264	45.3888
0.100607	6.1187	0.0226043	1.25224	0.293928	17.7042	0.503286	30.7503	0.568012	34.4873	0.843525	52.7981	0.171569	10.8429	0.42988	25.9585	0.70494	42.8588
0.106255	6.1157	0.0245068	1.291	0.295533	16.855	0.503771	29.1221	0.569039	32.6999	0.844123	49.9241	0.173629	10.59	0.431088	24.6449	0.705655	40.6024
0.111894	6.11249	0.0264387	1.32761	0.297213	16.0955	0.504289	27.6622	0.570118	31.0969	0.844754	47.3522	0.175289	10.4041	0.432359	23.4676	0.706408	38.5776
0.117524	6.10908	0.0283964	1.36219	0.298966	15.4128	0.50484	26.346	0.571248	29.6517	0.845419	45.0373	0.176525	10.2746	0.433691	22.4067	0.707199	36.7509
0.123142	6.10545	0.0303768	1.39485	0.300791	14.7962	0.505426	25.1535	0.57243	28.3424	0.846116	42.9431	0.177324	10.1947	0.435083	21.4463	0.708028	35.0948
0.12875	6.10161	0.0323768	1.42569	0.302686	14.2369	0.506047	24.0684	0.573662	27.1509	0.846847	41.0395	0.178481	10.0837	0.436535	20.5731	0.708895	33.5867
0.134345	6.09753	0.034394	1.45483	0.30465	13.7277	0.506704	23.0771	0.574945	26.0624	0.84761	39.302	0.179752	9.96814	0.438047	19.776	0.7098	32.2078
0.139927	6.09323	0.0364262	1.48237	0.30668	13.2624	0.507398	22.168	0.576277	25.0642	0.848407	37.7098	0.181501	9.81871	0.439617	19.0458	0.710743	30.9425
0.145495	6.08868	0.0382077	1.50514	0.308775	12.8358	0.50813	21.3317	0.577658	24.1458	0.849236	36.2457	0.183745	9.64161	0.441245	18.3746	0.711723	29.7773
0.151049	6.08388	0.0397332	1.52369	0.310933	12.4436	0.508901	20.5599	0.579087	23.2982	0.850098	34.8949	0.186506	9.44352	0.442929	17.7559	0.71274	28.7011
0.156587	6.07882	0.0409989	1.53846	0.313152	12.0819	0.509712	19.8457	0.580565	22.5137	0.850992	33.6449	0.189807	9.23117	0.44467	17.1838	0.713794	27.7041
0.162108	6.07348	0.0420022	1.54979	0.315431	11.7476	0.510565	19.183	0.582089	21.7857	0.851919	32.4849	0.193673	9.0109	0.446467	16.6537	0.714885	26.7781
0.167611	6.06786	0.0427413	1.55794	0.317769	11.4377	0.511459	18.5666	0.58366	21.1085	0.852878	31.4057	0.197618	8.81242	0.448318	16.1611	0.716013	25.9159
0.173096	6.06195	0.0432148	1.56306	0.319852	11.1858	0.512396	17.9921	0.585277	20.477	0.853869	30.3993	0.201636	8.63292	0.450223	15.7024	0.717177	25.1113
0.17856	6.05572	0.0438962	1.57032	0.321661	10.9832	0.513377	17.4555	0.58694	19.8869	0.854892	29.4586	0.205722	8.47001	0.452181	15.2743	0.718378	24.3587
0.184003	6.04918	0.0446378	1.57806	0.323179	10.8236	0.514403	16.9533	0.588648	19.3344	0.855947	28.5774	0.209873	8.32168	0.454192	14.8741	0.719614	23.6533
0.189424	6.04229	0.0456477	1.58836	0.324394	10.7021	0.515476	16.4826	0.5904	18.8162	0.857034	27.7505	0.214084	8.18622	0.456254	14.4992	0.720886	22.9911
0.19482	6.03506	0.0469273	1.601	0.325295	10.6153	0.516595	16.0405	0.592196	18.3291	0.858153	26.973	0.218351	8.06216	0.458366	14.1475	0.722194	22.3681
0.20019	6.02746	0.0484775	1.61573	0.325875	10.5608	0.517763	15.6247	0.594035	17.8707	0.859303	26.2407	0.222671	7.94824	0.460529	13.8169	0.723537	21.7812
0.205533	6.01948	0.0502997	1.6323	0.326714	10.484	0.51898	15.2332	0.595918	17.4386	0.860484	25.5498	0.22704	7.84335	0.46274	13.5057	0.724915	21.2273
0.210847	6.01109	0.0523949	1.65039	0.327633	10.4024	0.520248	14.8639	0.597842	17.0306	0.861696	24.8971	0.231456	7.74656	0.465	13.2124	0.726328	20.7038
0.216131	6.00229	0.0544938	1.66756	0.328892	10.2944	0.521566	14.5152	0.599809	16.6448	0.862939	24.2794	0.235914	7.65703	0.467307	12.9355	0.727775	20.2084
0.221382	5.99304	0.0565958	1.68388	0.330501	10.1628	0.522938	14.1855	0.601817	16.2796	0.864214	23.6941	0.240414	7.57403	0.46966	12.6738	0.729257	19.7389
0.226598	5.98333	0.0587005	1.69939	0.332473	10.0103	0.524363	13.8735	0.603865	15.9335	0.865518	23.1389	0.244952	7.49694	0.472059	12.4261	0.730773	19.2933
0.231777	5.97314	0.0608072	1.71415	0.334819	9.84044	0.525842	13.578	0.605954	15.605	0.866854	22.6114	0.249525	7.42517	0.474503	12.1915	0.732322	18.8701
0.236917	5.96245	0.0629155	1.72819	0.337558	9.65649	0.527377	13.2977	0.608083	15.2929	0.86822	22.1097	0.254132	7.35825	0.476991	11.9689	0.733906	18.4675
0.242016	5.95123	0.065025	1.74156	0.340343	9.48342	0.528968	13.0317	0.610251	14.996	0.869615	21.632	0.25877	7.29572	0.479523	11.7575	0.735522	18.0842
0.247071	5.93946	0.0671356	1.75432	0.343175	9.32036	0.530617	12.779	0.612458	14.7134	0.871041	21.1766	0.263437	7.2372	0.482097	11.5566	0.737171	17.7189
0.25208	5.92712	0.0692469	1.76648	0.346053	9.16657	0.532324	12.5387	0.614703	14.444	0.872497	20.7422	0.268131	7.18233	0.484374	11.3895	0.738854	17.3703
0.25704	5.91418	0.0713586	1.77809	0.348976	9.02136	0.53409	12.3102	0.616986	14.1871	0.873983	20.3273	0.272851	7.13079	0.486339	11.2526	0.740568	17.0374
0.261948	5.90061	0.0734706	1.78918	0.351944	8.88412	0.535917	12.0926	0.619307	13.9418	0.875498	19.9306	0.277594	7.08231	0.487981	11.1431	0.742315	16.7193
0.266801	5.8864	0.0755827	1.79978	0.354958	8.75429	0.537804	11.8853	0.621665	13.7073	0.877042	19.5511	0.28236	7.03663	0.489291	11.0587	0.744094	16.4149
0.271598	5.87153	0.0776947	1.80991	0.358016	8.63138	0.539753	11.6877	0.624059	13.4831	0.878615	19.1877	0.287146	6.99353	0.490259	10.9979	0.745904	16.1234
0.276333	5.85596	0.0798066	1.81962	0.361119	8.51493	0.541502	11.523	0.626489	13.2686	0.880218	18.8393	0.291951	6.95279	0.490882	10.9595	0.747746	15.8441
0.281006	5.83967	0.0819181	1.82891	0.364268	8.40454	0.54303	11.3878	0.628956	13.063	0.881849	18.5052	0.296774	6.91424	0.49178	10.905	0.749619	15.5763
0.285612	5.82266	0.0840294	1.83782	0.367463	8.29983	0.544321	11.2795	0.631457	12.866	0.883508	18.1845	0.301614	6.87769	0.492762	10.8467	0.751522	15.3193
0.290149	5.80489	0.0861401	1.84636	0.370704	8.20047	0.545358	11.196	0.633993	12.677	0.885197	17.8765	0.306468	6.84301	0.494104	10.769	0.753456	15.0725
0.294613	5.78635	0.0882505	1.85456	0.373992	8.10614	0.546131	11.1358	0.636564	12.4956	0.886913	17.5803	0.311336	6.81003	0.495815	10.6732	0.755421	14.8352
0.299003	5.76704	0.0903602	1.86243	0.377329	8.01658	0.546629	11.0978	0.639169	12.3214	0.888657	17.2955	0.316217	6.77865	0.497903	10.5608	0.757415	14.6071
0.303316	5.74694	0.0924694	1.86999	0.380715	7.93151	0.547352	11.0438	0.641807	12.154	0.890429	17.0213	0.32111	6.74874	0.500378	10.4336	0.759438	14.3876
0.307548	5.72605	0.094578	1.87726	0.384151	7.85071	0.548145	10.9861	0.644479	11.993	0.892229	16.7573	0.326012	6.72019	0.503253	10.2935	0.761492	14.1763
0.311698	5.70437	0.0966859	1.88425	0.387638	7.77396	0.549238	10.909	0.647184	11.8381	0.894056	16.5028	0.330924	6.6929	0.506163	10.1595	0.763574	13.9727
0.315764	5.6819	0.0987933	1.89099	0.391178	7.70106	0.550641	10.814	0.649567	11.7078	0.89591	16.2575	0.335845	6.66679	0.509109	10.031	0.765685	13.7765
0.319744	5.65865	0.1009	1.89747	0.394772	7.63183	0.552371	10.7025	0.651618	11.6001	0.897792	16.0207	0.340773	6.64177	0.512089	9.90784	0.767824	13.5872
0.323637	5.63463	0.103006	1.90372	0.398421	7.56609	0.554445	10.5763	0.653327	11.5132	0.8997	15.7922	0.345707	6.61777	0.515102	9.78968	0.769992	13.4046
0.327441	5.60986	0.105111	1.90975	0.402125	7.50368	0.556887	10.4374	0.654687	11.4459	0.901635	15.5715	0.350646	6.59471	0.518149	9.67624	0.772187	13.2282
0.331156	5.58437	0.107216	1.91556	0.405887	7.44445	0.559395	10.3044	0.655692	11.3971	0.903596	15.3583	0.355591	6.57253	0.521228	9.56728	0.77441	13.0579
0.334782	5.55819	0.10932	1.92117	0.409707	7.38825	0.561968	10.1772	0.656337	11.3663	0.905583	15.1521	0.360538	6.55116	0.524339	9.46256	0.77666	12.8933
0.338318	5.53134	0.111424	1.9266	0.413585	7.33495	0.564607	10.0553	0.657268	11.3224	0.907597	14.9527	0.365489	6.53056	0.527481	9.36186	0.778938	12.7341
0.341765	5.50386	0.113526	1.93183	0.417523	7.28442	0.567311	9.93854	0.658283	11.2752	0.909636	14.7598	0.370442	6.51067	0.530654	9.26496	0.781242	12.5802
0.345124	5.47579	0.115628	1.9369	0.421519	7.23651	0.570081	9.82666	0.65967	11.2121	0.911701	14.573	0.375395	6.49143	0.533856	9.17168	0.783572	12.4312
0.348396	5.44718	0.11773	1.94179	0.425575	7.19112	0.572915	9.71943	0.661434	11.1338	0.913791	14.392	0.380349	6.47281	0.537088	9.08184	0.785929	12.287
0.351582	5.41806	0.119831	1.94653	0.429689	7.14811	0.575815	9.61662	0.663583	11.0413	0.915907	14.2167	0.385303	6.45477	0.540349	8.99526	0.788312	12.1473
0.354683	5.3885	0.121931	1.95112	0.433862	7.10736	0.578778	9.51801	0.666126	10.9359	0.918047	14.0468	0.390255	6.43725	0.543638	8.91179	0.790409	12.0291
0.357703	5.35852	0.124031	1.95557	0.438092	7.06877	0.581806	9.42342	0.669071	10.8187	0.920212	13.882	0.395205	6.42023	0.546955	8.83128	0.792212	11.9309
0.360642	5.32818	0.12613	1.95987	0.442379	7.03223	0.584897	9.33264	0.672047	10.7056	0.922402	13.7222	0.400152	6.40368	0.550299	8.75359	0.793713	11.8513
0.363503	5.29753	0.128229	1.96405	0.446721	6.9976	0.58805	9.24551	0.675053	10.5962	0.924616	13.5671	0.405095	6.38755	0.55367	8.67859	0.794907	11.7895
0.366289	5.26662	0.130327	1.9681	0.451116	6.96481	0.591265	9.16186	0.678087	10.4904	0.926855	13.4165	0.410034	6.37182	0.557067	8.60615	0.795788	11.7446
0.369001	5.23549	0.132425	1.97203	0.455563	6.93373	0.594542	9.08152	0.681151	10.3881	0.929117	13.2703	0.414968	6.35646	0.56049	8.53616	0.796354	11.7161
0.371644	5.20418	0.134522	1.97584	0.46006	6.90426	0.597878	9.00434	0.684243	10.289	0.931403	13.1283	0.419896	6.34145	0.563938	8.46851	0.79717	11.6756
0.374218	5.17275	0.136618	1.97955	0.464604	6.87632	0.601274	8.93018	0.687364	10.1932	0.933713	12.9902	0.424817	6.32675	0.567411	8.4031	0.798059	11.6319
0.376727	5.14122	0.138714	1.98315	0.469194	6.8498	0.604729	8.8589	0.690513	10.1003	0.936046	12.856	0.429731	6.31234	0.570909	8.33983	0.799274	11.5733
0.378863	5.1137	0.14081	1.98665	0.473828	6.82461	0.60824	8.79036	0.69369	10.0104	0.938402	12.7256	0.434637	6.2982	0.574431	8.27861	0.800819	11.5003
0.380647	5.09023	0.142905	1.99005	0.478502	6.80067	0.611808	8.72446	0.696895	9.92319	0.940781	12.5986	0.439533	6.28431	0.577977	8.21935	0.802699	11.4139
0.382098	5.07083	0.145	1.99336	0.483215	6.7779	0.615432	8.66105	0.700128	9.83869	0.943183	12.4752	0.44442	6.27065	0.581547	8.16197	0.804921	11.3149
0.383231	5.0555	0.147094	1.99657	0.487964	6.75622	0.619109	8.60005	0.703387	9.75675	0.945294	12.3702	0.449297	6.2572	0.58514	8.1064	0.807494	11.2043
0.384055	5.04423	0.149188	1.99971	0.492746	6.73555	0.62284	8.54132	0.706674	9.67728	0.947107	12.2827	0.454162	6.24394	0.588756	8.05255	0.81009	11.0968
0.384579	5.03702	0.151282	2.00276	0.497561	6.71583	0.626622	8.48478	0.709987	9.60017	0.948616	12.2116	0.459015	6.23085	0.592394	8.00037	0.812709	10.9924
0.385327	5.02666	0.153375	2.00573	0.502405	6.69699	0.630455	8.43032	0.713328	9.52533	0.949815	12.1563	0.463856	6.21792	0.596055	7.94978	0.815352	10.8909
0.386134	5.01541	0.155467	2.00862	0.507275	6.67897	0.634337	8.37786	0.716695	9.45269	0.950699	12.116	0.468683	6.20513	0.599738	7.90073	0.818017	10.7922
0.38722	5.00014	0.15756	2.01144	0.512171	6.66171	0.638267	8.3273	0.720088	9.38215	0.951267	12.0904	0.473495	6.19246	0.603443	7.85315	0.820704	10.6962
0.388577	4.98084	0.159652	2.01419	0.517089	6.64515	0.642243	8.27855	0.723508	9.31365	0.952085	12.0539	0.478293	6.1799	0.60717	7.80699	0.823414	10.6028
0.390192	4.95757	0.161744	2.01688	0.522028	6.62925	0.646266	8.23154	0.726953	9.2471	0.952977	12.0146	0.483075	6.16744	0.610919	7.7622	0.826146	10.5118
0.392054	4.93037	0.163835	2.01949	0.526986	6.61396	0.650332	8.18619	0.730425	9.18244	0.954194	11.9617	0.48784	6.15506	0.614689	7.71872	0.828899	10.4233
0.394148	4.8993	0.165926	2.02205	0.531961	6.59923	0.654442	8.14242	0.733923	9.11959	0.955741	11.8957	0.492588	6.14275	0.61848	7.67652	0.831674	10.3371
0.396199	4.8684	0.168017	2.02454	0.536952	6.58503	0.658593	8.10017	0.737447	9.05851	0.957623	11.8173	0.497317	6.13051	0.622292	7.63554	0.83447	10.2531
0.398207	4.8377	0.170107	2.02697	0.541955	6.57131	0.662784	8.05937	0.740996	8.99912	0.959845	11.7273	0.502028	6.11831	0.626125	7.59574	0.837288	10.1713
0.400177	4.80722	0.172198	2.02935	0.546971	6.55804	0.667015	8.01995	0.744572	8.94137	0.962415	11.6263	0.506719	6.10614	0.629979	7.55708	0.840126	10.0915
0.402109	4.77697	0.174287	2.03167	0.551997	6.54519	0.671283	7.98185	0.748173	8.8852	0.965006	11.5279	0.511389	6.094	0.633854	7.51952	0.842985	10.0138
0.404006	4.74696	0.176377	2.03394	0.557033	6.53272	0.675587	7.94502	0.7518	8.83056	0.967618	11.4318	0.516038	6.08188	0.63775	7.48303	0.845864	9.93803
0.405869	4.71721	0.178466	2.03616	0.562076	6.52062	0.679926	7.90939	0.755452	8.77741	0.97025	11.3381	0.520665	6.06976	0.641666	7.44756	0.848764	9.86412
0.407701	4.68773	0.180555	2.03832	0.567125	6.50884	0.6843	7.87491	0.759131	8.72569	0.972903	11.2467	0.525269	6.05764	0.645603	7.41309	0.851683	9.79202
0.409502	4.65854	0.182644	2.04044	0.572179	6.49738	0.688706	7.84154	0.762835	8.67536	0.975576	11.1574	0.52985	6.04551	0.64956	7.37958	0.854622	9.72167
0.411274	4.62963	0.184733	2.04252	0.577238	6.48619	0.693143	7.80922	0.766565	8.62638	0.978268	11.0703	0.534406	6.03335	0.653538	7.347	0.857581	9.65302
0.413019	4.60102	0.186821	2.04455	0.582299	6.47527	0.69761	7.7779	0.770321	8.57871	0.980981	10.9851	0.538937	6.02117	0.657536	7.31533	0.860559	9.58601
0.414739	4.57272	0.18891	2.04653	0.587362	6.46459	0.702105	7.74754	0.774103	8.53229	0.983713	10.902	0.543442	6.00896	0.661555	7.28453	0.863556	9.52059
0.416434	4.54472	0.190997	2.04847	0.592425	6.45414	0.706629	7.71811	0.777912	8.48711	0.986465	10.8207	0.547921	5.9967	0.665593	7.25458	0.866572	9.45671
0.418107	4.51705	0.193085	2.05038	0.597489	6.4439	0.711178	7.68954	0.781746	8.44313	0.989236	10.7414	0.552372	5.9844	0.669653	7.22544	0.869608	9.39431
0.419757	4.48969	0.195173	2.05224	0.602551	6.43384	0.715752	7.66182	0.785607	8.4003	0.992026	10.6638	0.556795	5.97204	0.673732	7.19711	0.872661	9.33336
0.421388	4.46265	0.19726	2.05407	0.607611	6.42397	0.72035	7.63489	0.789495	8.3586	0.994834	10.5879	0.56119	5.95961	0.677831	7.16954	0.875734	9.27381
0.422998	4.43594	0.199347	2.05585	0.612669	6.41425	0.72497	7.60872	0.79341	8.318	0.997662	10.5138	0.565555	5.94713	0.681951	7.14273	0.878824	9.21561
0.424591	4.40956	0.201434	2.05761	0.617722	6.40469	0.729611	7.58328	0.797352	8.27846	1.00051	10.4412	0.56989	5.93457	0.68609	7.11663	0.881933	9.15873
0.426166	4.3835	0.203521	2.05932	0.622772	6.39527	0.734272	7.55853	0.801321	8.23996			0.574195	5.92194	0.69025	7.09125	0.885059	9.10312
0.427725	4.35777	0.205607	2.06101	0.627816	6.38597	0.738952	7.53444	0.805318	8.20248			0.578468	5.90923	0.694429	7.06654	0.888204	9.04875
0.429268	4.33237	0.207694	2.06266	0.632855	6.37679	0.743649	7.51099	0.809343	8.16598			0.582709	5.89644	0.698628	7.0425	0.891366	8.99558
0.430797	4.3073	0.20978	2.06428	0.637887	6.36771	0.748363	7.48813	0.813395	8.13044			0.586918	5.88356	0.702846	7.01911	0.894545	8.94358
0.432313	4.28256	0.211866	2.06586	0.642912	6.35873	0.753092	7.46584	0.817477	8.09584			0.591094	5.8706	0.707084	6.99633	0.897742	8.8927
0.433815	4.25815	0.213952	2.06742	0.647929	6.34984	0.757834	7.4441	0.821587	8.06215			0.595237	5.85754	0.711342	6.97416	0.900957	8.84293
0.435306	4.23405	0.216038	2.06895	0.652938	6.34103	0.762589	7.42288	0.825726	8.02936			0.599346	5.84439	0.715618	6.95258	0.904188	8.79423
0.436785	4.21029	0.218123	2.07045	0.657938	6.3323	0.767356	7.40215	0.829895	7.99744			0.603421	5.83115	0.719914	6.93157	0.907436	8.74656
0.438253	4.18684	0.220209	2.07192	0.662929	6.32363	0.772133	7.38188	0.834093	7.96638			0.607461	5.81781	0.724228	6.91112	0.910701	8.6999
0.439712	4.16371	0.222294	2.07336	0.66791	6.31502	0.776919	7.36206	0.838322	7.93615			0.611466	5.80437	0.728561	6.89119	0.913983	8.65423
0.441161	4.1409	0.224379	2.07478	0.672881	6.30646	0.781713	7.34267	0.842581	7.90673			0.615436	5.79084	0.732912	6.87179	0.917281	8.60951
0.442601	4.11841	0.226464	2.07618	0.67784	6.29795	0.786515	7.32367	0.846871	7.87811			0.61937	5.77721	0.737281	6.85289	0.920596	8.56571
0.444034	4.09622	0.228549	2.07755	0.682788	6.28948	0.791322	7.30506	0.851193	7.85027			0.623268	5.76348	0.741668	6.83448	0.923927	8.52282
0.445458	4.07435	0.230634	2.07889	0.687725	6.28104	0.796134	7.28681	0.855546	7.8232			0.62713	5.74966	0.746072	6.81654	0.927275	8.48081
0.446876	4.05277	0.232719	2.08021	0.692649	6.27264	0.800949	7.2689	0.859931	7.79687			0.630956	5.73574	0.750493	6.79905	0.930638	8.43966
0.448287	4.0315	0.234803	2.08151	0.69756	6.26426	0.805768	7.25131	0.864349	7.77127			0.634745	5.72173	0.754931	6.78201	0.934017	8.39934
0.449691	4.01053	0.236888	2.08278	0.702458	6.2559	0.810588	7.23404	0.868799	7.74639			0.638498	5.70762	0.759385	6.7654	0.937413	8.35983
0.45109	3.98985	0.238972	2.08404	0.707343	6.24757	0.815409	7.21705	0.873282	7.72221			0.642214	5.69342	0.763855	6.7492	0.940824	8.32111
0.452484	3.96947	0.241056	2.08527	0.712213	6.23924	0.82023	7.20035	0.877798	7.69872			0.645894	5.67914	0.76834	6.7334	0.944251	8.28316
0.453872	3.94937	0.24314	2.08648	0.717069	6.23093	0.825051	7.18391	0.882347	7.6759			0.649537	5.66476	0.772841	6.71799	0.947693	8.24596
0.455257	3.92956	0.245224	2.08768	0.721911	6.22262	0.829869	7.16772	0.886931	7.65374			0.653143	5.6503	0.777356	6.70296	0.951151	8.2095
0.456637	3.91003	0.247308	2.08885	0.726737	6.21431	0.834686	7.15176	0.891548	7.63222			0.656713	5.63576	0.781886	6.68828	0.954624	8.17375
